"type";"begin_time";"frequency";"count";"created with version";"exported with version";"last_name";"first_name";"born";"sex";"measurement_date";"record_name"
"record";"0,00000";"2000.4";"80560";"Noraxon myoRESEARCH Software 4.2.22";"4.2.22";"MyoMetrics Demo Record";"";"";"male";"2025-12-02T13:35:13.117+01:00";"Free Capture-2"

"time";"Activity";"Marker";"BICEPS BR. LT (uV)"
0,00000;"Activity";;-3,241070047
0,00050;;;-4,15665327
0,00100;;;-3,546264455
0,00150;;;-2,325486824
0,00200;;;-1,409903601
0,00250;;;-1,409903601
0,00300;;;-1,409903601
0,00350;;;-1,409903601
0,00400;;;-1,409903601
0,00450;;;-1,104709193
0,00500;;;-1,104709193
0,00550;;;-1,715098008
0,00600;;;-1,715098008
0,00650;;;0,1160684379
0,00700;;;2,5576237
0,00750;;;3,168012515
0,00800;;;1,947234884
0,00850;;;1,031651661
0,00900;;;2,252429292
0,00950;;;2,862818107
0,01000;;;1,642040476
0,01050;;;0,4212628456
0,01100;;;0,7264572533
0,01150;;;1,642040476
0,01200;;;0,4212628456
0,01250;;;-0,4943203775
0,01300;;;0,1160684379
0,01350;;;2,252429292
0,01400;;;2,862818107
0,01450;;;1,336846069
0,01500;;;0,1160684379
0,01550;;;0,7264572533
0,01600;;;2,862818107
0,01650;;;4,388790146
0,01700;;;3,473206923
0,01750;;;1,642040476
0,01800;;;0,1160684379
0,01850;;;-1,104709193
0,01900;;;-2,325486824
0,01950;;;-4,15665327
0,02000;;;-5,377430901
0,02050;;;-4,767042085
0,02100;;;-2,630681231
0,02150;;;-0,1891259698
0,02200;;;1,336846069
0,02250;;;2,252429292
0,02300;;;3,168012515
0,02350;;;4,083595738
0,02400;;;4,388790146
0,02450;;;4,388790146
0,02500;;;3,77840133
0,02550;;;2,862818107
0,02600;;;2,5576237
0,02650;;;2,252429292
0,02700;;;1,642040476
0,02750;;;0,4212628456
0,02800;;;-0,4943203775
0,02849;;;-0,1891259698
0,02899;;;0,4212628456
0,02949;;;0,1160684379
0,02999;;;-1,104709193
0,03049;;;-2,325486824
0,03099;;;-1,409903601
0,03149;;;0,1160684379
0,03199;;;-0,1891259698
0,03249;;;-1,409903601
0,03299;;;-2,020292416
0,03349;;;-2,020292416
0,03399;;;-2,935875639
0,03449;;;-4,461847678
0,03499;;;-5,072236493
0,03549;;;-4,15665327
0,03599;;;-3,241070047
0,03649;;;-3,546264455
0,03699;;;-4,15665327
0,03749;;;-3,241070047
0,03799;;;-2,020292416
0,03849;;;-2,935875639
0,03899;;;-4,767042085
0,03949;;;-4,767042085
0,03999;;;-3,241070047
0,04049;;;-2,020292416
0,04099;;;-2,630681231
0,04149;;;-3,546264455
0,04199;;;-3,546264455
0,04249;;;-3,241070047
0,04299;;;-3,241070047
0,04349;;;-3,241070047
0,04399;;;-2,630681231
0,04449;;;-2,325486824
0,04499;;;-2,325486824
0,04549;;;-1,715098008
0,04599;;;-0,4943203775
0,04649;;;0,1160684379
0,04699;;;-0,4943203775
0,04749;;;-2,325486824
0,04799;;;-3,241070047
0,04849;;;-1,409903601
0,04899;;;1,031651661
0,04949;;;2,252429292
0,04999;;;0,1160684379
0,05049;;;-2,935875639
0,05099;;;-2,935875639
0,05149;;;0,4212628456
0,05199;;;3,77840133
0,05249;;;3,473206923
0,05299;;;0,4212628456
0,05349;;;-1,409903601
0,05399;;;-1,715098008
0,05449;;;-2,020292416
0,05499;;;-3,241070047
0,05549;;;-3,851458862
0,05599;;;-2,630681231
0,05649;;;-0,4943203775
0,05699;;;0,4212628456
0,05749;;;0,1160684379
0,05799;;;-1,104709193
0,05849;;;-1,409903601
0,05899;;;-1,409903601
0,05949;;;-0,7995147852
0,05999;;;-0,1891259698
0,06049;;;-0,1891259698
0,06099;;;-0,4943203775
0,06149;;;-0,7995147852
0,06199;;;-0,1891259698
0,06249;;;0,1160684379
0,06299;;;-0,1891259698
0,06349;;;-0,7995147852
0,06399;;;-0,7995147852
0,06449;;;-0,1891259698
0,06499;;;0,1160684379
0,06549;;;0,1160684379
0,06599;;;1,336846069
0,06649;;;3,473206923
0,06699;;;4,388790146
0,06749;;;3,77840133
0,06799;;;3,77840133
0,06849;;;4,388790146
0,06899;;;4,693984553
0,06949;;;3,77840133
0,06999;;;3,168012515
0,07049;;;3,77840133
0,07099;;;3,473206923
0,07149;;;1,336846069
0,07199;;;-0,1891259698
0,07249;;;0,4212628456
0,07299;;;2,5576237
0,07349;;;2,252429292
0,07399;;;-0,1891259698
0,07449;;;-1,409903601
0,07499;;;0,1160684379
0,07549;;;1,336846069
0,07599;;;0,1160684379
0,07649;;;-1,715098008
0,07699;;;-2,630681231
0,07749;;;-1,715098008
0,07799;;;-1,104709193
0,07849;;;-1,409903601
0,07899;;;-2,325486824
0,07949;;;-2,630681231
0,07999;;;-1,715098008
0,08049;;;0,1160684379
0,08099;;;1,031651661
0,08149;;;1,642040476
0,08199;;;1,947234884
0,08249;;;2,862818107
0,08299;;;3,473206923
0,08349;;;2,862818107
0,08399;;;1,642040476
0,08448;;;1,336846069
0,08498;;;2,252429292
0,08548;;;3,473206923
0,08598;;;3,77840133
0,08648;;;4,083595738
0,08698;;;4,693984553
0,08748;;;4,693984553
0,08798;;;3,77840133
0,08848;;;2,862818107
0,08898;;;2,5576237
0,08948;;;2,5576237
0,08998;;;2,252429292
0,09048;;;1,336846069
0,09098;;;0,1160684379
0,09148;;;-0,1891259698
0,09198;;;0,1160684379
0,09248;;;1,031651661
0,09298;;;1,642040476
0,09348;;;1,642040476
0,09398;;;1,642040476
0,09448;;;1,642040476
0,09498;;;1,031651661
0,09548;;;-0,1891259698
0,09598;;;-1,409903601
0,09648;;;-1,409903601
0,09698;;;-1,104709193
0,09748;;;-0,4943203775
0,09798;;;-0,4943203775
0,09848;;;-0,4943203775
0,09898;;;-1,104709193
0,09948;;;-2,020292416
0,09998;;;-2,935875639
0,10048;;;-2,935875639
0,10098;;;-2,630681231
0,10148;;;-2,020292416
0,10198;;;-1,409903601
0,10248;;;-0,4943203775
0,10298;;;0,4212628456
0,10348;;;1,031651661
0,10398;;;0,4212628456
0,10448;;;-0,7995147852
0,10498;;;-2,630681231
0,10548;;;-3,241070047
0,10598;;;-2,020292416
0,10648;;;-0,1891259698
0,10698;;;1,031651661
0,10748;;;1,642040476
0,10798;;;2,252429292
0,10848;;;2,862818107
0,10898;;;3,77840133
0,10948;;;4,388790146
0,10998;;;4,083595738
0,11048;;;2,862818107
0,11098;;;1,642040476
0,11148;;;1,336846069
0,11198;;;1,031651661
0,11248;;;1,031651661
0,11298;;;0,1160684379
0,11348;;;-0,4943203775
0,11398;;;-1,409903601
0,11448;;;-1,715098008
0,11498;;;-2,020292416
0,11548;;;-1,715098008
0,11598;;;-2,325486824
0,11648;;;-3,546264455
0,11698;;;-4,461847678
0,11748;;;-2,630681231
0,11798;;;1,336846069
0,11848;;;4,693984553
0,11898;;;4,999178961
0,11948;;;3,77840133
0,11998;;;2,862818107
0,12048;;;1,947234884
0,12098;;;0,7264572533
0,12148;;;-0,7995147852
0,12198;;;-1,715098008
0,12248;;;-2,020292416
0,12298;;;-2,325486824
0,12348;;;-2,020292416
0,12398;;;-0,4943203775
0,12448;;;1,031651661
0,12498;;;1,336846069
0,12548;;;0,1160684379
0,12598;;;-0,1891259698
0,12648;;;0,4212628456
0,12698;;;2,252429292
0,12748;;;3,473206923
0,12798;;;3,77840133
0,12848;;;3,77840133
0,12898;;;3,473206923
0,12948;;;2,5576237
0,12998;;;1,336846069
0,13048;;;0,7264572533
0,13098;;;1,031651661
0,13148;;;1,336846069
0,13198;;;0,7264572533
0,13248;;;-0,4943203775
0,13298;;;-1,715098008
0,13348;;;-2,630681231
0,13398;;;-2,935875639
0,13448;;;-3,241070047
0,13498;;;-3,241070047
0,13548;;;-2,630681231
0,13598;;;-1,715098008
0,13648;;;-1,104709193
0,13698;;;-1,715098008
0,13748;;;-2,630681231
0,13798;;;-2,935875639
0,13848;;;-1,715098008
0,13898;;;-0,4943203775
0,13948;;;-0,7995147852
0,13998;;;-2,630681231
0,14048;;;-3,851458862
0,14097;;;-2,630681231
0,14147;;;-0,4943203775
0,14197;;;0,1160684379
0,14247;;;-0,7995147852
0,14297;;;-1,715098008
0,14347;;;-0,7995147852
0,14397;;;0,4212628456
0,14447;;;0,1160684379
0,14497;;;-1,409903601
0,14547;;;-1,409903601
0,14597;;;1,031651661
0,14647;;;4,388790146
0,14697;;;5,304373369
0,14747;;;3,473206923
0,14797;;;1,947234884
0,14847;;;1,642040476
0,14897;;;2,252429292
0,14947;;;1,947234884
0,14997;;;1,336846069
0,15047;;;1,336846069
0,15097;;;1,947234884
0,15147;;;2,252429292
0,15197;;;2,252429292
0,15247;;;2,252429292
0,15297;;;2,252429292
0,15347;;;1,336846069
0,15397;;;0,1160684379
0,15447;;;-0,7995147852
0,15497;;;-1,715098008
0,15547;;;-2,325486824
0,15597;;;-2,935875639
0,15647;;;-3,546264455
0,15697;;;-4,15665327
0,15747;;;-4,15665327
0,15797;;;-2,935875639
0,15847;;;-1,104709193
0,15897;;;0,1160684379
0,15947;;;0,7264572533
0,15997;;;1,336846069
0,16047;;;1,031651661
0,16097;;;0,1160684379
0,16147;;;0,1160684379
0,16197;;;0,7264572533
0,16247;;;2,862818107
0,16297;;;3,77840133
0,16347;;;2,862818107
0,16397;;;1,642040476
0,16447;;;0,7264572533
0,16497;;;0,1160684379
0,16547;;;-0,1891259698
0,16597;;;0,1160684379
0,16647;;;1,031651661
0,16697;;;1,947234884
0,16747;;;2,862818107
0,16797;;;3,473206923
0,16847;;;4,388790146
0,16897;;;4,388790146
0,16947;;;3,168012515
0,16997;;;2,862818107
0,17047;;;3,473206923
0,17097;;;4,083595738
0,17147;;;3,168012515
0,17197;;;1,947234884
0,17247;;;1,336846069
0,17297;;;1,031651661
0,17347;;;0,1160684379
0,17397;;;-0,7995147852
0,17447;;;-0,7995147852
0,17497;;;-0,1891259698
0,17547;;;-0,1891259698
0,17597;;;-1,715098008
0,17647;;;-2,935875639
0,17697;;;-2,935875639
0,17747;;;-2,325486824
0,17797;;;-2,630681231
0,17847;;;-2,935875639
0,17897;;;-2,630681231
0,17947;;;-1,409903601
0,17997;;;-1,104709193
0,18047;;;-1,104709193
0,18097;;;-0,4943203775
0,18147;;;0,7264572533
0,18197;;;1,031651661
0,18247;;;0,1160684379
0,18297;;;-0,7995147852
0,18347;;;0,1160684379
0,18397;;;1,336846069
0,18447;;;1,642040476
0,18497;;;1,031651661
0,18547;;;1,031651661
0,18597;;;0,7264572533
0,18647;;;0,1160684379
0,18697;;;-0,4943203775
0,18747;;;-0,4943203775
0,18797;;;0,7264572533
0,18847;;;1,947234884
0,18897;;;1,947234884
0,18947;;;0,7264572533
0,18997;;;-0,1891259698
0,19047;;;-0,7995147852
0,19097;;;0,1160684379
0,19147;;;1,336846069
0,19197;;;2,252429292
0,19247;;;1,031651661
0,19297;;;-1,104709193
0,19347;;;-1,409903601
0,19397;;;-0,1891259698
0,19447;;;0,4212628456
0,19497;;;0,1160684379
0,19547;;;-1,715098008
0,19597;;;-2,325486824
0,19647;;;-2,020292416
0,19696;;;-1,104709193
0,19746;;;-1,104709193
0,19796;;;-1,715098008
0,19846;;;-2,630681231
0,19896;;;-2,935875639
0,19946;;;-2,630681231
0,19996;;;-1,715098008
0,20046;;;-1,409903601
0,20096;;;-2,020292416
0,20146;;;-2,630681231
0,20196;;;-2,935875639
0,20246;;;-3,241070047
0,20296;;;-3,851458862
0,20346;;;-4,15665327
0,20396;;;-3,546264455
0,20446;;;-2,020292416
0,20496;;;-0,1891259698
0,20546;;;0,7264572533
0,20596;;;1,031651661
0,20646;;;0,4212628456
0,20696;;;0,4212628456
0,20746;;;1,031651661
0,20796;;;1,947234884
0,20846;;;1,947234884
0,20896;;;1,642040476
0,20946;;;2,252429292
0,20996;;;3,168012515
0,21046;;;3,77840133
0,21096;;;3,473206923
0,21146;;;2,862818107
0,21196;;;2,252429292
0,21246;;;1,947234884
0,21296;;;1,642040476
0,21346;;;0,7264572533
0,21396;;;-0,4943203775
0,21446;;;-2,325486824
0,21496;;;-3,241070047
0,21546;;;-2,630681231
0,21596;;;-1,409903601
0,21646;;;-0,4943203775
0,21696;;;-0,7995147852
0,21746;;;-1,409903601
0,21796;;;-2,020292416
0,21846;;;-2,325486824
0,21896;;;-2,935875639
0,21946;;;-2,630681231
0,21996;;;-1,409903601
0,22046;;;0,1160684379
0,22096;;;1,947234884
0,22146;;;2,252429292
0,22196;;;1,642040476
0,22246;;;0,1160684379
0,22296;;;-0,7995147852
0,22346;;;-0,1891259698
0,22396;;;1,336846069
0,22446;;;2,862818107
0,22496;;;2,252429292
0,22546;;;1,031651661
0,22596;;;1,642040476
0,22646;;;3,77840133
0,22696;;;4,693984553
0,22746;;;3,77840133
0,22796;;;2,862818107
0,22846;;;3,168012515
0,22896;;;3,77840133
0,22946;;;2,5576237
0,22996;;;0,1160684379
0,23046;;;-2,325486824
0,23096;;;-2,325486824
0,23146;;;-0,1891259698
0,23196;;;1,336846069
0,23246;;;2,252429292
0,23296;;;1,642040476
0,23346;;;0,4212628456
0,23396;;;0,1160684379
0,23446;;;0,1160684379
0,23496;;;0,4212628456
0,23546;;;0,7264572533
0,23596;;;0,7264572533
0,23646;;;0,1160684379
0,23696;;;-1,104709193
0,23746;;;-1,715098008
0,23796;;;-1,409903601
0,23846;;;-0,7995147852
0,23896;;;-0,7995147852
0,23946;;;-1,715098008
0,23996;;;-2,935875639
0,24046;;;-2,630681231
0,24096;;;-1,715098008
0,24146;;;-1,104709193
0,24196;;;-1,715098008
0,24246;;;-2,935875639
0,24296;;;-3,546264455
0,24346;;;-2,935875639
0,24396;;;-1,715098008
0,24446;;;-1,409903601
0,24496;;;-2,020292416
0,24546;;;-2,630681231
0,24596;;;-0,4943203775
0,24646;;;2,252429292
0,24696;;;3,77840133
0,24746;;;3,168012515
0,24796;;;2,252429292
0,24846;;;2,252429292
0,24896;;;1,642040476
0,24946;;;-0,4943203775
0,24996;;;-2,325486824
0,25046;;;-1,409903601
0,25096;;;1,336846069
0,25146;;;3,473206923
0,25196;;;2,862818107
0,25246;;;2,252429292
0,25296;;;2,862818107
0,25345;;;3,473206923
0,25395;;;2,862818107
0,25445;;;1,031651661
0,25495;;;0,1160684379
0,25545;;;0,7264572533
0,25595;;;2,5576237
0,25645;;;4,083595738
0,25695;;;3,77840133
0,25745;;;1,642040476
0,25795;;;-0,1891259698
0,25845;;;-1,409903601
0,25895;;;-0,7995147852
0,25945;;;0,1160684379
0,25995;;;1,336846069
0,26045;;;1,336846069
0,26095;;;1,031651661
0,26145;;;1,031651661
0,26195;;;1,642040476
0,26245;;;2,252429292
0,26295;;;2,862818107
0,26345;;;3,168012515
0,26395;;;3,77840133
0,26445;;;4,083595738
0,26495;;;3,168012515
0,26545;;;2,252429292
0,26595;;;2,252429292
0,26645;;;4,083595738
0,26695;;;5,609567777
0,26745;;;5,914762184
0,26795;;;5,304373369
0,26845;;;4,999178961
0,26895;;;4,999178961
0,26945;;;4,083595738
0,26995;;;3,168012515
0,27045;;;2,862818107
0,27095;;;3,77840133
0,27145;;;4,999178961
0,27195;;;4,388790146
0,27245;;;1,947234884
0,27295;;;0,1160684379
0,27345;;;-0,4943203775
0,27395;;;-0,4943203775
0,27445;;;-0,7995147852
0,27495;;;-1,409903601
0,27545;;;-1,104709193
0,27595;;;-0,1891259698
0,27645;;;0,1160684379
0,27695;;;0,1160684379
0,27745;;;-0,7995147852
0,27795;;;-1,409903601
0,27845;;;-1,409903601
0,27895;;;-2,020292416
0,27945;;;-2,935875639
0,27995;;;-3,546264455
0,28045;;;-3,546264455
0,28095;;;-3,241070047
0,28145;;;-2,935875639
0,28195;;;-2,630681231
0,28245;;;-2,935875639
0,28295;;;-2,935875639
0,28345;;;-1,715098008
0,28395;;;-0,1891259698
0,28445;;;0,1160684379
0,28495;;;-0,7995147852
0,28545;;;-1,409903601
0,28595;;;-0,7995147852
0,28645;;;-0,1891259698
0,28695;;;-0,4943203775
0,28745;;;-0,4943203775
0,28795;;;0,4212628456
0,28845;;;1,642040476
0,28895;;;1,336846069
0,28945;;;0,4212628456
0,28995;;;0,4212628456
0,29045;;;1,336846069
0,29095;;;1,031651661
0,29145;;;0,1160684379
0,29195;;;-1,104709193
0,29245;;;-2,020292416
0,29295;;;-2,325486824
0,29345;;;-2,630681231
0,29395;;;-3,546264455
0,29445;;;-4,461847678
0,29495;;;-5,377430901
0,29545;;;-5,072236493
0,29595;;;-2,935875639
0,29645;;;-1,104709193
0,29695;;;-1,104709193
0,29745;;;-2,935875639
0,29795;;;-3,241070047
0,29845;;;-2,325486824
0,29895;;;-1,715098008
0,29945;;;-2,325486824
0,29995;;;-3,241070047
0,30045;;;-4,15665327
0,30095;;;-4,461847678
0,30145;;;-4,15665327
0,30195;;;-3,546264455
0,30245;;;-2,630681231
0,30295;;;-1,715098008
0,30345;;;-0,4943203775
0,30395;;;1,031651661
0,30445;;;2,252429292
0,30495;;;1,642040476
0,30545;;;1,031651661
0,30595;;;2,5576237
0,30645;;;5,304373369
0,30695;;;4,999178961
0,30745;;;1,947234884
0,30795;;;0,1160684379
0,30845;;;0,7264572533
0,30895;;;1,642040476
0,30944;;;0,1160684379
0,30994;;;-1,104709193
0,31044;;;-0,4943203775
0,31094;;;0,1160684379
0,31144;;;-0,4943203775
0,31194;;;-2,020292416
0,31244;;;-2,935875639
0,31294;;;-3,241070047
0,31344;;;-3,851458862
0,31394;;;-4,15665327
0,31444;;;-3,546264455
0,31494;;;-2,630681231
0,31544;;;-2,935875639
0,31594;;;-3,546264455
0,31644;;;-3,241070047
0,31694;;;-2,630681231
0,31744;;;-2,325486824
0,31794;;;-2,325486824
0,31844;;;-1,104709193
0,31894;;;-0,1891259698
0,31944;;;-0,7995147852
0,31994;;;-2,020292416
0,32044;;;-2,935875639
0,32094;;;-3,546264455
0,32144;;;-3,546264455
0,32194;;;-2,630681231
0,32244;;;-1,409903601
0,32294;;;-0,7995147852
0,32344;;;-1,715098008
0,32394;;;-2,935875639
0,32444;;;-3,241070047
0,32494;;;-3,241070047
0,32544;;;-3,241070047
0,32594;;;-2,020292416
0,32644;;;0,1160684379
0,32694;;;1,336846069
0,32744;;;0,4212628456
0,32794;;;-0,1891259698
0,32844;;;0,1160684379
0,32894;;;1,031651661
0,32944;;;0,7264572533
0,32994;;;0,4212628456
0,33044;;;1,031651661
0,33094;;;1,031651661
0,33144;;;0,1160684379
0,33194;;;0,1160684379
0,33244;;;1,642040476
0,33294;;;2,862818107
0,33344;;;1,947234884
0,33394;;;0,1160684379
0,33444;;;0,1160684379
0,33494;;;1,642040476
0,33544;;;1,947234884
0,33594;;;0,7264572533
0,33644;;;0,1160684379
0,33694;;;-0,4943203775
0,33744;;;-2,020292416
0,33794;;;-3,241070047
0,33844;;;-2,325486824
0,33894;;;0,1160684379
0,33944;;;1,336846069
0,33994;;;0,1160684379
0,34044;;;-1,409903601
0,34094;;;-1,409903601
0,34144;;;-0,7995147852
0,34194;;;-0,7995147852
0,34244;;;-1,409903601
0,34294;;;-1,715098008
0,34344;;;-1,104709193
0,34394;;;0,7264572533
0,34444;;;2,862818107
0,34494;;;3,473206923
0,34544;;;2,5576237
0,34594;;;1,336846069
0,34644;;;1,642040476
0,34694;;;2,862818107
0,34744;;;2,5576237
0,34794;;;0,7264572533
0,34844;;;-0,1891259698
0,34894;;;0,1160684379
0,34944;;;0,7264572533
0,34994;;;1,031651661
0,35044;;;1,642040476
0,35094;;;2,252429292
0,35144;;;2,862818107
0,35194;;;2,252429292
0,35244;;;1,336846069
0,35294;;;0,7264572533
0,35344;;;0,7264572533
0,35394;;;1,336846069
0,35444;;;2,5576237
0,35494;;;3,473206923
0,35544;;;3,168012515
0,35594;;;2,252429292
0,35644;;;1,336846069
0,35694;;;1,336846069
0,35744;;;0,4212628456
0,35794;;;-1,409903601
0,35844;;;-3,241070047
0,35894;;;-3,851458862
0,35944;;;-3,546264455
0,35994;;;-3,241070047
0,36044;;;-3,241070047
0,36094;;;-2,935875639
0,36144;;;-2,325486824
0,36194;;;-2,630681231
0,36244;;;-3,241070047
0,36294;;;-2,325486824
0,36344;;;-0,1891259698
0,36394;;;0,1160684379
0,36444;;;-0,1891259698
0,36494;;;-0,1891259698
0,36544;;;1,031651661
0,36593;;;2,252429292
0,36643;;;1,947234884
0,36693;;;1,642040476
0,36743;;;3,168012515
0,36793;;;4,999178961
0,36843;;;4,999178961
0,36893;;;3,473206923
0,36943;;;3,473206923
0,36993;;;4,693984553
0,37043;;;5,304373369
0,37093;;;5,304373369
0,37143;;;5,609567777
0,37193;;;5,914762184
0,37243;;;4,999178961
0,37293;;;2,862818107
0,37343;;;1,947234884
0,37393;;;3,168012515
0,37443;;;4,083595738
0,37493;;;3,168012515
0,37543;;;2,5576237
0,37593;;;2,862818107
0,37643;;;3,168012515
0,37693;;;2,5576237
0,37743;;;1,642040476
0,37793;;;1,947234884
0,37843;;;2,862818107
0,37893;;;2,5576237
0,37943;;;1,336846069
0,37993;;;0,1160684379
0,38043;;;-1,104709193
0,38093;;;-1,715098008
0,38143;;;-1,409903601
0,38193;;;-0,7995147852
0,38243;;;-1,104709193
0,38293;;;-1,715098008
0,38343;;;-1,409903601
0,38393;;;0,1160684379
0,38443;;;0,4212628456
0,38493;;;0,1160684379
0,38543;;;0,4212628456
0,38593;;;1,947234884
0,38643;;;2,252429292
0,38693;;;0,7264572533
0,38743;;;-0,4943203775
0,38793;;;0,1160684379
0,38843;;;1,336846069
0,38893;;;1,031651661
0,38943;;;0,1160684379
0,38993;;;0,1160684379
0,39043;;;1,031651661
0,39093;;;0,7264572533
0,39143;;;-0,7995147852
0,39193;;;-1,104709193
0,39243;;;0,1160684379
0,39293;;;1,031651661
0,39343;;;1,031651661
0,39393;;;0,4212628456
0,39443;;;0,4212628456
0,39493;;;0,4212628456
0,39543;;;0,1160684379
0,39593;;;-1,104709193
0,39643;;;-1,715098008
0,39693;;;-1,715098008
0,39743;;;-1,715098008
0,39793;;;-2,325486824
0,39843;;;-2,935875639
0,39893;;;-2,630681231
0,39943;;;-2,325486824
0,39993;;;-2,020292416
0,40043;;;-2,325486824
0,40093;;;-2,325486824
0,40143;;;-1,104709193
0,40193;;;-0,1891259698
0,40243;;;-0,1891259698
0,40293;;;-1,409903601
0,40343;;;-2,630681231
0,40393;;;-3,241070047
0,40443;;;-3,241070047
0,40493;;;-2,935875639
0,40543;;;-2,325486824
0,40593;;;-1,104709193
0,40643;;;0,7264572533
0,40693;;;2,252429292
0,40743;;;2,252429292
0,40793;;;1,336846069
0,40843;;;0,7264572533
0,40893;;;0,4212628456
0,40943;;;0,4212628456
0,40993;;;0,1160684379
0,41043;;;0,7264572533
0,41093;;;1,642040476
0,41143;;;1,642040476
0,41193;;;0,7264572533
0,41243;;;0,4212628456
0,41293;;;1,642040476
0,41343;;;2,5576237
0,41393;;;2,5576237
0,41443;;;1,642040476
0,41493;;;0,7264572533
0,41543;;;-0,1891259698
0,41593;;;-1,715098008
0,41643;;;-2,630681231
0,41693;;;-2,630681231
0,41743;;;-2,630681231
0,41793;;;-3,241070047
0,41843;;;-3,546264455
0,41893;;;-2,630681231
0,41943;;;-1,409903601
0,41993;;;-1,409903601
0,42043;;;-1,715098008
0,42093;;;-1,104709193
0,42143;;;0,1160684379
0,42192;;;0,1160684379
0,42242;;;-0,7995147852
0,42292;;;-1,104709193
0,42342;;;-0,1891259698
0,42392;;;0,4212628456
0,42442;;;0,4212628456
0,42492;;;0,1160684379
0,42542;;;-0,4943203775
0,42592;;;-1,715098008
0,42642;;;-3,546264455
0,42692;;;-3,546264455
0,42742;;;-2,020292416
0,42792;;;-0,7995147852
0,42842;;;-0,7995147852
0,42892;;;-1,104709193
0,42942;;;0,1160684379
0,42992;;;0,4212628456
0,43042;;;0,4212628456
0,43092;;;0,7264572533
0,43142;;;1,947234884
0,43192;;;2,5576237
0,43242;;;1,947234884
0,43292;;;1,336846069
0,43342;;;3,168012515
0,43392;;;4,388790146
0,43442;;;2,252429292
0,43492;;;-1,104709193
0,43542;;;-1,715098008
0,43592;;;0,1160684379
0,43642;;;1,642040476
0,43692;;;0,7264572533
0,43742;;;0,1160684379
0,43792;;;0,1160684379
0,43842;;;-0,4943203775
0,43892;;;-1,715098008
0,43942;;;-2,630681231
0,43992;;;-1,409903601
0,44042;;;-0,1891259698
0,44092;;;0,1160684379
0,44142;;;0,7264572533
0,44192;;;1,336846069
0,44242;;;1,336846069
0,44292;;;1,642040476
0,44342;;;3,168012515
0,44392;;;5,914762184
0,44442;;;6,525151
0,44492;;;4,693984553
0,44542;;;3,168012515
0,44592;;;3,473206923
0,44642;;;4,083595738
0,44692;;;3,168012515
0,44742;;;1,642040476
0,44792;;;1,642040476
0,44842;;;1,947234884
0,44892;;;0,4212628456
0,44942;;;-1,409903601
0,44992;;;-0,4943203775
0,45042;;;2,252429292
0,45092;;;4,999178961
0,45142;;;5,914762184
0,45192;;;6,219956592
0,45242;;;6,830345407
0,45292;;;6,525151
0,45342;;;5,304373369
0,45392;;;4,693984553
0,45442;;;4,999178961
0,45492;;;4,999178961
0,45542;;;4,083595738
0,45592;;;2,862818107
0,45642;;;1,947234884
0,45692;;;1,031651661
0,45742;;;0,1160684379
0,45792;;;-0,1891259698
0,45842;;;0,1160684379
0,45892;;;0,1160684379
0,45942;;;-1,104709193
0,45992;;;-2,325486824
0,46042;;;-2,935875639
0,46092;;;-2,325486824
0,46142;;;-1,409903601
0,46192;;;-0,4943203775
0,46242;;;1,031651661
0,46292;;;2,5576237
0,46342;;;1,947234884
0,46392;;;0,1160684379
0,46442;;;-1,409903601
0,46492;;;-0,4943203775
0,46542;;;1,336846069
0,46592;;;2,862818107
0,46642;;;3,77840133
0,46692;;;4,388790146
0,46742;;;3,473206923
0,46792;;;1,336846069
0,46842;;;-0,7995147852
0,46892;;;-1,409903601
0,46942;;;-0,1891259698
0,46992;;;0,1160684379
0,47042;;;0,1160684379
0,47092;;;0,1160684379
0,47142;;;1,336846069
0,47192;;;1,642040476
0,47242;;;0,4212628456
0,47292;;;-0,1891259698
0,47342;;;0,1160684379
0,47392;;;0,7264572533
0,47442;;;1,336846069
0,47492;;;1,031651661
0,47542;;;0,1160684379
0,47592;;;-1,104709193
0,47642;;;-2,935875639
0,47692;;;-3,546264455
0,47742;;;-2,020292416
0,47792;;;-0,4943203775
0,47841;;;-0,7995147852
0,47891;;;-2,935875639
0,47941;;;-4,461847678
0,47991;;;-4,461847678
0,48041;;;-3,241070047
0,48091;;;-2,935875639
0,48141;;;-2,630681231
0,48191;;;-2,020292416
0,48241;;;-1,409903601
0,48291;;;-1,409903601
0,48341;;;-1,715098008
0,48391;;;-1,715098008
0,48441;;;-1,409903601
0,48491;;;-1,104709193
0,48541;;;-0,1891259698
0,48591;;;0,7264572533
0,48641;;;1,031651661
0,48691;;;0,1160684379
0,48741;;;-1,409903601
0,48791;;;-0,7995147852
0,48841;;;1,336846069
0,48891;;;1,947234884
0,48941;;;0,1160684379
0,48991;;;-1,409903601
0,49041;;;-0,7995147852
0,49091;;;0,1160684379
0,49141;;;-0,1891259698
0,49191;;;-2,020292416
0,49241;;;-2,935875639
0,49291;;;-2,630681231
0,49341;;;-2,630681231
0,49391;;;-3,241070047
0,49441;;;-2,935875639
0,49491;;;-2,020292416
0,49541;;;-1,409903601
0,49591;;;-1,104709193
0,49641;;;-0,7995147852
0,49691;;;-0,4943203775
0,49741;;;-0,7995147852
0,49791;;;-2,020292416
0,49841;;;-3,241070047
0,49891;;;-4,15665327
0,49941;;;-5,072236493
0,49991;;;-5,377430901
0,50041;;;-4,767042085
0,50091;;;-4,461847678
0,50141;;;-4,767042085
0,50191;;;-5,377430901
0,50241;;;-4,767042085
0,50291;;;-3,546264455
0,50341;;;-2,630681231
0,50391;;;-2,020292416
0,50441;;;-1,715098008
0,50491;;;-1,409903601
0,50541;;;-1,715098008
0,50591;;;-1,715098008
0,50641;;;-1,104709193
0,50691;;;0,4212628456
0,50741;;;1,336846069
0,50791;;;0,7264572533
0,50841;;;-0,1891259698
0,50891;;;-1,409903601
0,50941;;;-2,020292416
0,50991;;;-1,104709193
0,51041;;;0,4212628456
0,51091;;;1,336846069
0,51141;;;0,1160684379
0,51191;;;-0,7995147852
0,51241;;;-0,4943203775
0,51291;;;0,1160684379
0,51341;;;0,1160684379
0,51391;;;-1,104709193
0,51441;;;-1,409903601
0,51491;;;0,1160684379
0,51541;;;1,336846069
0,51591;;;2,252429292
0,51641;;;3,168012515
0,51691;;;4,388790146
0,51741;;;4,083595738
0,51791;;;1,947234884
0,51841;;;-0,1891259698
0,51891;;;-0,7995147852
0,51941;;;-0,1891259698
0,51991;;;0,1160684379
0,52041;;;0,1160684379
0,52091;;;0,1160684379
0,52141;;;0,4212628456
0,52191;;;0,4212628456
0,52241;;;-0,1891259698
0,52291;;;-0,7995147852
0,52341;;;0,1160684379
0,52391;;;1,642040476
0,52441;;;3,168012515
0,52491;;;3,77840133
0,52541;;;3,77840133
0,52591;;;4,388790146
0,52641;;;5,304373369
0,52691;;;5,914762184
0,52741;;;5,914762184
0,52791;;;6,525151
0,52841;;;7,135539815
0,52891;;;6,830345407
0,52941;;;4,999178961
0,52991;;;2,862818107
0,53041;;;2,252429292
0,53091;;;2,5576237
0,53141;;;3,168012515
0,53191;;;2,5576237
0,53241;;;1,336846069
0,53291;;;0,4212628456
0,53341;;;1,031651661
0,53391;;;2,252429292
0,53440;;;2,5576237
0,53490;;;1,947234884
0,53540;;;1,336846069
0,53590;;;1,642040476
0,53640;;;2,252429292
0,53690;;;1,947234884
0,53740;;;1,642040476
0,53790;;;1,031651661
0,53840;;;-0,1891259698
0,53890;;;-2,935875639
0,53940;;;-4,15665327
0,53990;;;-2,630681231
0,54040;;;-0,1891259698
0,54090;;;0,1160684379
0,54140;;;-1,409903601
0,54190;;;-2,935875639
0,54240;;;-2,630681231
0,54290;;;-2,325486824
0,54340;;;-3,241070047
0,54390;;;-3,546264455
0,54440;;;-2,630681231
0,54490;;;-1,715098008
0,54540;;;-1,715098008
0,54590;;;-1,715098008
0,54640;;;-1,104709193
0,54690;;;-0,4943203775
0,54740;;;-1,104709193
0,54790;;;-0,7995147852
0,54840;;;0,4212628456
0,54890;;;1,642040476
0,54940;;;0,7264572533
0,54990;;;-0,4943203775
0,55040;;;-0,7995147852
0,55090;;;0,1160684379
0,55140;;;0,4212628456
0,55190;;;0,1160684379
0,55240;;;-0,4943203775
0,55290;;;-1,104709193
0,55340;;;-2,020292416
0,55390;;;-2,325486824
0,55440;;;-1,409903601
0,55490;;;0,1160684379
0,55540;;;0,4212628456
0,55590;;;0,1160684379
0,55640;;;0,1160684379
0,55690;;;-0,1891259698
0,55740;;;-0,7995147852
0,55790;;;-1,409903601
0,55840;;;-1,715098008
0,55890;;;-2,020292416
0,55940;;;-2,630681231
0,55990;;;-2,630681231
0,56040;;;-1,715098008
0,56090;;;-0,1891259698
0,56140;;;-0,7995147852
0,56190;;;-3,241070047
0,56240;;;-5,682625308
0,56290;;;-6,293014124
0,56340;;;-5,682625308
0,56390;;;-4,15665327
0,56440;;;-3,546264455
0,56490;;;-3,546264455
0,56540;;;-3,546264455
0,56590;;;-2,325486824
0,56640;;;-0,1891259698
0,56690;;;1,336846069
0,56740;;;2,252429292
0,56790;;;2,862818107
0,56840;;;3,473206923
0,56890;;;3,473206923
0,56940;;;2,5576237
0,56990;;;1,642040476
0,57040;;;1,947234884
0,57090;;;3,168012515
0,57140;;;4,083595738
0,57190;;;3,473206923
0,57240;;;2,252429292
0,57290;;;1,336846069
0,57340;;;1,031651661
0,57390;;;1,336846069
0,57440;;;1,642040476
0,57490;;;1,031651661
0,57540;;;0,4212628456
0,57590;;;0,1160684379
0,57640;;;0,1160684379
0,57690;;;0,4212628456
0,57740;;;0,7264572533
0,57790;;;0,4212628456
0,57840;;;-0,1891259698
0,57890;;;-1,715098008
0,57940;;;-3,241070047
0,57990;;;-3,241070047
0,58040;;;-2,325486824
0,58090;;;-2,325486824
0,58140;;;-2,935875639
0,58190;;;-2,935875639
0,58240;;;-2,020292416
0,58290;;;-1,104709193
0,58340;;;-1,104709193
0,58390;;;-0,4943203775
0,58440;;;0,1160684379
0,58490;;;0,1160684379
0,58540;;;-1,409903601
0,58590;;;-2,325486824
0,58640;;;-0,4943203775
0,58690;;;1,947234884
0,58740;;;4,083595738
0,58790;;;5,304373369
0,58840;;;6,219956592
0,58890;;;6,525151
0,58940;;;4,693984553
0,58990;;;2,862818107
0,59040;;;1,642040476
0,59089;;;1,031651661
0,59139;;;0,7264572533
0,59189;;;0,4212628456
0,59239;;;0,7264572533
0,59289;;;0,1160684379
0,59339;;;-1,409903601
0,59389;;;-2,325486824
0,59439;;;-1,104709193
0,59489;;;0,1160684379
0,59539;;;-0,4943203775
0,59589;;;-2,935875639
0,59639;;;-3,241070047
0,59689;;;-1,104709193
0,59739;;;0,1160684379
0,59789;;;-1,409903601
0,59839;;;-2,630681231
0,59889;;;-2,020292416
0,59939;;;-1,104709193
0,59989;;;-1,715098008
0,60039;;;-3,546264455
0,60089;;;-4,15665327
0,60139;;;-3,241070047
0,60189;;;-2,935875639
0,60239;;;-3,241070047
0,60289;;;-2,935875639
0,60339;;;-2,020292416
0,60389;;;-1,715098008
0,60439;;;-1,409903601
0,60489;;;0,1160684379
0,60539;;;2,5576237
0,60589;;;4,388790146
0,60639;;;4,083595738
0,60689;;;2,862818107
0,60739;;;2,5576237
0,60789;;;2,5576237
0,60839;;;2,252429292
0,60889;;;2,252429292
0,60939;;;2,862818107
0,60989;;;3,473206923
0,61039;;;3,473206923
0,61089;;;2,862818107
0,61139;;;3,473206923
0,61189;;;4,693984553
0,61239;;;5,304373369
0,61289;;;4,388790146
0,61339;;;2,862818107
0,61389;;;1,336846069
0,61439;;;0,7264572533
0,61489;;;0,4212628456
0,61539;;;0,4212628456
0,61589;;;0,4212628456
0,61639;;;0,7264572533
0,61689;;;0,7264572533
0,61739;;;-0,4943203775
0,61789;;;-2,325486824
0,61839;;;-3,851458862
0,61889;;;-4,15665327
0,61939;;;-4,461847678
0,61989;;;-4,767042085
0,62039;;;-4,15665327
0,62089;;;-2,325486824
0,62139;;;-0,4943203775
0,62189;;;0,7264572533
0,62239;;;1,336846069
0,62289;;;1,947234884
0,62339;;;2,252429292
0,62389;;;1,947234884
0,62439;;;1,336846069
0,62489;;;0,1160684379
0,62539;;;-0,1891259698
0,62589;;;-0,4943203775
0,62639;;;0,1160684379
0,62689;;;0,7264572533
0,62739;;;1,642040476
0,62789;;;1,336846069
0,62839;;;1,336846069
0,62889;;;1,947234884
0,62939;;;3,473206923
0,62989;;;3,473206923
0,63039;;;2,252429292
0,63089;;;0,7264572533
0,63139;;;0,7264572533
0,63189;;;1,642040476
0,63239;;;2,252429292
0,63289;;;1,947234884
0,63339;;;1,947234884
0,63389;;;3,473206923
0,63439;;;4,388790146
0,63489;;;3,473206923
0,63539;;;1,947234884
0,63589;;;1,336846069
0,63639;;;2,252429292
0,63689;;;2,5576237
0,63739;;;1,642040476
0,63789;;;0,7264572533
0,63839;;;0,1160684379
0,63889;;;-0,4943203775
0,63939;;;-0,7995147852
0,63989;;;-0,1891259698
0,64039;;;0,7264572533
0,64089;;;1,031651661
0,64139;;;0,1160684379
0,64189;;;-0,1891259698
0,64239;;;0,1160684379
0,64289;;;0,7264572533
0,64339;;;0,4212628456
0,64389;;;0,1160684379
0,64439;;;0,1160684379
0,64489;;;0,1160684379
0,64539;;;-0,1891259698
0,64589;;;-0,1891259698
0,64639;;;0,7264572533
0,64688;;;1,642040476
0,64738;;;0,7264572533
0,64788;;;-0,1891259698
0,64838;;;-0,1891259698
0,64888;;;0,4212628456
0,64938;;;0,1160684379
0,64988;;;-0,1891259698
0,65038;;;0,1160684379
0,65088;;;0,7264572533
0,65138;;;0,7264572533
0,65188;;;0,1160684379
0,65238;;;-0,1891259698
0,65288;;;0,1160684379
0,65338;;;0,1160684379
0,65388;;;-0,7995147852
0,65438;;;-2,020292416
0,65488;;;-2,325486824
0,65538;;;-2,325486824
0,65588;;;-2,020292416
0,65638;;;-1,104709193
0,65688;;;-1,715098008
0,65738;;;-3,851458862
0,65788;;;-5,072236493
0,65838;;;-3,546264455
0,65888;;;-0,7995147852
0,65938;;;0,1160684379
0,65988;;;-1,104709193
0,66038;;;-2,325486824
0,66088;;;-1,715098008
0,66138;;;-1,409903601
0,66188;;;-2,630681231
0,66238;;;-3,851458862
0,66288;;;-3,546264455
0,66338;;;-1,409903601
0,66388;;;0,7264572533
0,66438;;;2,252429292
0,66488;;;2,5576237
0,66538;;;1,947234884
0,66588;;;1,642040476
0,66638;;;1,947234884
0,66688;;;2,252429292
0,66738;;;2,5576237
0,66788;;;2,5576237
0,66838;;;3,473206923
0,66888;;;4,388790146
0,66938;;;4,083595738
0,66988;;;2,5576237
0,67038;;;1,336846069
0,67088;;;1,336846069
0,67138;;;1,947234884
0,67188;;;2,862818107
0,67238;;;3,77840133
0,67288;;;4,999178961
0,67338;;;4,693984553
0,67388;;;3,168012515
0,67438;;;1,947234884
0,67488;;;2,862818107
0,67538;;;4,999178961
0,67588;;;5,914762184
0,67638;;;4,388790146
0,67688;;;2,5576237
0,67738;;;1,947234884
0,67788;;;1,642040476
0,67838;;;0,7264572533
0,67888;;;0,1160684379
0,67938;;;-0,1891259698
0,67988;;;0,1160684379
0,68038;;;0,1160684379
0,68088;;;-0,1891259698
0,68138;;;-1,409903601
0,68188;;;-2,020292416
0,68238;;;-1,104709193
0,68288;;;0,1160684379
0,68338;;;1,336846069
0,68388;;;1,336846069
0,68438;;;1,031651661
0,68488;;;1,336846069
0,68538;;;2,5576237
0,68588;;;2,862818107
0,68638;;;2,252429292
0,68688;;;1,947234884
0,68738;;;2,252429292
0,68788;;;1,947234884
0,68838;;;1,336846069
0,68888;;;1,336846069
0,68938;;;2,862818107
0,68988;;;4,083595738
0,69038;;;3,168012515
0,69088;;;1,031651661
0,69138;;;0,4212628456
0,69188;;;0,7264572533
0,69238;;;0,7264572533
0,69288;;;-0,4943203775
0,69338;;;-2,325486824
0,69388;;;-3,241070047
0,69438;;;-3,546264455
0,69488;;;-3,241070047
0,69538;;;-2,935875639
0,69588;;;-2,935875639
0,69638;;;-3,851458862
0,69688;;;-4,767042085
0,69738;;;-4,15665327
0,69788;;;-1,715098008
0,69838;;;-0,1891259698
0,69888;;;-2,325486824
0,69938;;;-5,987819716
0,69988;;;-7,513791755
0,70038;;;-5,682625308
0,70088;;;-2,935875639
0,70138;;;-1,409903601
0,70188;;;-0,7995147852
0,70238;;;-0,1891259698
0,70288;;;0,1160684379
0,70337;;;0,1160684379
0,70387;;;-0,1891259698
0,70437;;;-0,1891259698
0,70487;;;-0,4943203775
0,70537;;;-1,409903601
0,70587;;;-2,020292416
0,70637;;;-1,409903601
0,70687;;;-0,4943203775
0,70737;;;-0,7995147852
0,70787;;;-1,104709193
0,70837;;;-0,1891259698
0,70887;;;0,7264572533
0,70937;;;0,4212628456
0,70987;;;-0,1891259698
0,71037;;;-0,1891259698
0,71087;;;0,7264572533
0,71137;;;0,7264572533
0,71187;;;-0,4943203775
0,71237;;;-1,409903601
0,71287;;;-0,1891259698
0,71337;;;0,4212628456
0,71387;;;-0,1891259698
0,71437;;;-2,020292416
0,71487;;;-2,020292416
0,71537;;;-1,409903601
0,71587;;;-2,020292416
0,71637;;;-3,546264455
0,71687;;;-4,15665327
0,71737;;;-3,241070047
0,71787;;;-2,935875639
0,71837;;;-3,851458862
0,71887;;;-3,851458862
0,71937;;;-2,935875639
0,71987;;;-2,020292416
0,72037;;;-2,630681231
0,72087;;;-2,935875639
0,72137;;;-2,020292416
0,72187;;;-1,104709193
0,72237;;;-1,104709193
0,72287;;;-2,020292416
0,72337;;;-2,020292416
0,72387;;;-1,409903601
0,72437;;;-0,7995147852
0,72487;;;-0,4943203775
0,72537;;;0,1160684379
0,72587;;;0,7264572533
0,72637;;;0,4212628456
0,72687;;;0,4212628456
0,72737;;;1,642040476
0,72787;;;3,473206923
0,72837;;;4,388790146
0,72887;;;2,862818107
0,72937;;;0,1160684379
0,72987;;;-1,715098008
0,73037;;;-1,409903601
0,73087;;;-0,4943203775
0,73137;;;0,1160684379
0,73187;;;0,1160684379
0,73237;;;-0,1891259698
0,73287;;;-0,4943203775
0,73337;;;-0,1891259698
0,73387;;;0,1160684379
0,73437;;;-0,1891259698
0,73487;;;-1,409903601
0,73537;;;-2,020292416
0,73587;;;-2,020292416
0,73637;;;-2,020292416
0,73687;;;-2,935875639
0,73737;;;-3,546264455
0,73787;;;-3,241070047
0,73837;;;-2,020292416
0,73887;;;-1,104709193
0,73937;;;-0,7995147852
0,73987;;;-1,104709193
0,74037;;;-1,409903601
0,74087;;;-1,409903601
0,74137;;;-1,104709193
0,74187;;;-1,104709193
0,74237;;;-1,715098008
0,74287;;;-2,325486824
0,74337;;;-1,715098008
0,74387;;;-0,4943203775
0,74437;;;-0,4943203775
0,74487;;;-2,020292416
0,74537;;;-3,241070047
0,74587;;;-3,241070047
0,74637;;;-2,630681231
0,74687;;;-1,409903601
0,74737;;;-0,1891259698
0,74787;;;1,031651661
0,74837;;;1,642040476
0,74887;;;1,642040476
0,74937;;;2,5576237
0,74987;;;3,77840133
0,75037;;;4,388790146
0,75087;;;3,473206923
0,75137;;;2,5576237
0,75187;;;3,168012515
0,75237;;;3,77840133
0,75287;;;3,168012515
0,75337;;;1,947234884
0,75387;;;1,642040476
0,75437;;;1,642040476
0,75487;;;1,642040476
0,75537;;;1,031651661
0,75587;;;1,031651661
0,75637;;;1,031651661
0,75687;;;0,4212628456
0,75737;;;-0,1891259698
0,75787;;;-0,4943203775
0,75837;;;0,1160684379
0,75887;;;0,1160684379
0,75936;;;-0,7995147852
0,75986;;;-2,020292416
0,76036;;;-2,020292416
0,76086;;;-0,7995147852
0,76136;;;0,1160684379
0,76186;;;0,1160684379
0,76236;;;0,1160684379
0,76286;;;0,4212628456
0,76336;;;1,031651661
0,76386;;;1,336846069
0,76436;;;0,1160684379
0,76486;;;-0,7995147852
0,76536;;;-0,7995147852
0,76586;;;0,1160684379
0,76636;;;0,7264572533
0,76686;;;1,031651661
0,76736;;;0,7264572533
0,76786;;;0,4212628456
0,76836;;;1,031651661
0,76886;;;1,336846069
0,76936;;;1,642040476
0,76986;;;1,336846069
0,77036;;;1,031651661
0,77086;;;0,7264572533
0,77136;;;0,1160684379
0,77186;;;-0,1891259698
0,77236;;;1,031651661
0,77286;;;2,5576237
0,77336;;;1,947234884
0,77386;;;-0,4943203775
0,77436;;;-2,020292416
0,77486;;;-0,7995147852
0,77536;;;1,031651661
0,77586;;;1,336846069
0,77636;;;0,1160684379
0,77686;;;0,7264572533
0,77736;;;2,5576237
0,77786;;;3,168012515
0,77836;;;1,336846069
0,77886;;;0,4212628456
0,77936;;;1,947234884
0,77986;;;3,77840133
0,78036;;;3,168012515
0,78086;;;1,642040476
0,78136;;;2,5576237
0,78186;;;4,693984553
0,78236;;;5,304373369
0,78286;;;4,693984553
0,78336;;;5,304373369
0,78386;;;8,051123038
0,78436;;;10,4926783
0,78486;;;11,10306712
0,78536;;;11,10306712
0,78586;;;12,01865034
0,78636;;;12,01865034
0,78686;;;10,4926783
0,78736;;;8,966706261
0,78786;;;8,966706261
0,78836;;;9,271900669
0,78886;;;8,356317446
0,78936;;;7,135539815
0,78986;;;6,525151
0,79036;;;6,525151
0,79086;;;5,609567777
0,79136;;;4,083595738
0,79186;;;2,862818107
0,79236;;;1,947234884
0,79286;;;0,4212628456
0,79336;;;-0,1891259698
0,79386;;;-0,1891259698
0,79436;;;0,1160684379
0,79486;;;-0,4943203775
0,79536;;;-2,020292416
0,79586;;;-3,241070047
0,79636;;;-3,241070047
0,79686;;;-2,935875639
0,79736;;;-3,241070047
0,79786;;;-3,851458862
0,79836;;;-4,461847678
0,79886;;;-4,15665327
0,79936;;;-3,241070047
0,79986;;;-2,630681231
0,80036;;;-2,935875639
0,80086;;;-4,15665327
0,80136;;;-4,15665327
0,80186;;;-3,546264455
0,80236;;;-2,325486824
0,80286;;;-2,020292416
0,80336;;;-1,715098008
0,80386;;;-0,7995147852
0,80436;;;0,1160684379
0,80486;;;0,4212628456
0,80536;;;0,1160684379
0,80586;;;0,1160684379
0,80636;;;0,1160684379
0,80686;;;0,4212628456
0,80736;;;0,7264572533
0,80786;;;1,642040476
0,80836;;;2,252429292
0,80886;;;1,947234884
0,80936;;;0,7264572533
0,80986;;;0,1160684379
0,81036;;;-0,4943203775
0,81086;;;-2,020292416
0,81136;;;-3,851458862
0,81186;;;-4,15665327
0,81236;;;-3,241070047
0,81286;;;-2,630681231
0,81336;;;-2,935875639
0,81386;;;-3,851458862
0,81436;;;-4,15665327
0,81486;;;-3,851458862
0,81536;;;-3,546264455
0,81585;;;-3,546264455
0,81635;;;-3,241070047
0,81685;;;-2,630681231
0,81735;;;-2,630681231
0,81785;;;-3,241070047
0,81835;;;-5,377430901
0,81885;;;-6,903402939
0,81935;;;-6,598208532
0,81985;;;-5,377430901
0,82035;;;-4,767042085
0,82085;;;-5,682625308
0,82135;;;-6,598208532
0,82185;;;-6,293014124
0,82235;;;-5,377430901
0,82285;;;-5,072236493
0,82335;;;-5,377430901
0,82385;;;-4,767042085
0,82435;;;-4,461847678
0,82485;;;-5,377430901
0,82535;;;-6,903402939
0,82585;;;-7,208597347
0,82635;;;-6,293014124
0,82685;;;-5,987819716
0,82735;;;-7,513791755
0,82785;;;-8,429374978
0,82835;;;-8,12418057
0,82885;;;-8,429374978
0,82935;;;-10,26054142
0,82985;;;-12,09170787
0,83035;;;-12,39690228
0,83085;;;-11,78651346
0,83135;;;-12,09170787
0,83185;;;-13,61767991
0,83235;;;-14,22806872
0,83285;;;-13,61767991
0,83335;;;-12,70209669
0,83385;;;-11,48131905
0,83435;;;-9,039763793
0,83485;;;-5,377430901
0,83535;;;-2,935875639
0,83585;;;-1,715098008
0,83635;;;-0,7995147852
0,83685;;;0,1160684379
0,83735;;;0,4212628456
0,83785;;;0,1160684379
0,83835;;;-0,4943203775
0,83885;;;-0,7995147852
0,83935;;;-1,104709193
0,83985;;;-2,020292416
0,84035;;;-1,409903601
0,84085;;;1,336846069
0,84135;;;5,304373369
0,84185;;;6,830345407
0,84235;;;5,609567777
0,84285;;;4,693984553
0,84335;;;7,135539815
0,84385;;;10,79787271
0,84435;;;12,32384475
0,84485;;;12,01865034
0,84535;;;12,32384475
0,84585;;;14,15501119
0,84635;;;15,68098323
0,84685;;;16,29137205
0,84735;;;16,29137205
0,84785;;;16,90176086
0,84835;;;17,51214968
0,84885;;;16,90176086
0,84935;;;15,98617764
0,84985;;;14,76540001
0,85035;;;13,84981678
0,85085;;;13,54462238
0,85135;;;13,84981678
0,85185;;;14,4602056
0,85235;;;14,4602056
0,85285;;;14,15501119
0,85335;;;14,15501119
0,85385;;;15,37578882
0,85435;;;16,59656645
0,85485;;;16,90176086
0,85535;;;15,68098323
0,85585;;;13,84981678
0,85635;;;12,62903915
0,85685;;;12,62903915
0,85735;;;13,54462238
0,85785;;;13,23942797
0,85835;;;11,10306712
0,85885;;;8,661511854
0,85935;;;7,74592863
0,85985;;;8,051123038
0,86035;;;7,440734223
0,86085;;;5,304373369
0,86135;;;3,77840133
0,86185;;;3,473206923
0,86235;;;3,168012515
0,86285;;;2,5576237
0,86335;;;2,252429292
0,86385;;;2,862818107
0,86435;;;3,168012515
0,86485;;;1,642040476
0,86535;;;-0,4943203775
0,86585;;;-1,715098008
0,86635;;;-1,409903601
0,86685;;;-1,409903601
0,86735;;;-2,935875639
0,86785;;;-4,767042085
0,86835;;;-5,377430901
0,86885;;;-5,072236493
0,86935;;;-5,682625308
0,86985;;;-7,513791755
0,87035;;;-8,429374978
0,87085;;;-7,818986162
0,87135;;;-6,598208532
0,87184;;;-6,598208532
0,87234;;;-7,513791755
0,87284;;;-8,734569385
0,87334;;;-9,344958201
0,87384;;;-9,650152609
0,87434;;;-10,26054142
0,87484;;;-10,26054142
0,87534;;;-10,26054142
0,87584;;;-11,17612465
0,87634;;;-12,39690228
0,87684;;;-12,39690228
0,87734;;;-9,955347016
0,87784;;;-8,429374978
0,87834;;;-9,344958201
0,87884;;;-11,48131905
0,87934;;;-11,48131905
0,87984;;;-9,650152609
0,88034;;;-8,429374978
0,88084;;;-8,429374978
0,88134;;;-9,039763793
0,88184;;;-9,039763793
0,88234;;;-9,344958201
0,88284;;;-9,955347016
0,88334;;;-9,955347016
0,88384;;;-9,039763793
0,88434;;;-8,734569385
0,88484;;;-8,734569385
0,88534;;;-7,818986162
0,88584;;;-5,682625308
0,88634;;;-4,15665327
0,88684;;;-3,851458862
0,88734;;;-3,546264455
0,88784;;;-2,630681231
0,88834;;;-2,325486824
0,88884;;;-2,935875639
0,88934;;;-3,546264455
0,88984;;;-3,241070047
0,89034;;;-2,935875639
0,89084;;;-3,851458862
0,89134;;;-5,072236493
0,89184;;;-5,987819716
0,89234;;;-6,903402939
0,89284;;;-8,429374978
0,89334;;;-9,955347016
0,89384;;;-10,56573583
0,89434;;;-10,26054142
0,89484;;;-10,56573583
0,89534;;;-12,39690228
0,89584;;;-14,22806872
0,89634;;;-14,83845754
0,89684;;;-13,92287432
0,89734;;;-12,70209669
0,89784;;;-13,00729109
0,89834;;;-14,53326313
0,89884;;;-15,44884635
0,89934;;;-15,14365195
0,89984;;;-14,83845754
0,90034;;;-14,53326313
0,90084;;;-13,61767991
0,90134;;;-10,26054142
0,90184;;;-6,293014124
0,90234;;;-3,546264455
0,90284;;;-2,020292416
0,90334;;;0,1160684379
0,90384;;;3,473206923
0,90434;;;5,914762184
0,90484;;;4,693984553
0,90534;;;2,252429292
0,90584;;;1,642040476
0,90634;;;3,473206923
0,90684;;;4,693984553
0,90734;;;3,473206923
0,90784;;;1,336846069
0,90834;;;1,031651661
0,90884;;;1,947234884
0,90934;;;1,031651661
0,90984;;;0,1160684379
0,91034;;;1,031651661
0,91084;;;4,388790146
0,91134;;;7,135539815
0,91184;;;8,051123038
0,91234;;;9,882289484
0,91284;;;12,93423356
0,91334;;;14,4602056
0,91384;;;12,62903915
0,91434;;;10,18748389
0,91484;;;11,10306712
0,91534;;;14,15501119
0,91584;;;14,4602056
0,91634;;;11,10306712
0,91684;;;6,219956592
0,91734;;;1,336846069
0,91784;;;-3,546264455
0,91834;;;-8,429374978
0,91884;;;-10,87093024
0,91934;;;-9,344958201
0,91984;;;-5,377430901
0,92034;;;0,1160684379
0,92084;;;5,304373369
0,92134;;;9,577095077
0,92184;;;11,10306712
0,92234;;;11,10306712
0,92284;;;12,62903915
0,92334;;;15,98617764
0,92384;;;19,64851053
0,92434;;;22,09006579
0,92484;;;23,61603783
0,92534;;;25,14200987
0,92584;;;26,97317632
0,92634;;;29,10953717
0,92684;;;30,94070362
0,92734;;;32,16148125
0,92784;;;33,38225888
0,92833;;;35,82381414
0,92883;;;37,65498059
0,92933;;;37,04459177
0,92983;;;33,07706447
0,93033;;;28,80434276
0,93083;;;26,66798191
0,93133;;;25,44720428
0,93183;;;23,00564902
0,93233;;;20,86928816
0,93283;;;21,17448257
0,93333;;;21,47967698
0,93383;;;18,12253849
0,93433;;;12,01865034
0,93483;;;7,135539815
0,93533;;;4,083595738
0,93583;;;-2,020292416
0,93633;;;-12,39690228
0,93683;;;-23,38390096
0,93733;;;-29,79298352
0,93783;;;-32,84492759
0,93833;;;-34,37089963
0,93883;;;-34,37089963
0,93933;;;-31,92934437
0,93983;;;-28,87740029
0,94033;;;-27,04623385
0,94083;;;-24,60467859
0,94133;;;-20,33195688
0,94183;;;-14,83845754
0,94233;;;-9,955347016
0,94283;;;-4,15665327
0,94333;;;3,77840133
0,94383;;;12,32384475
0,94433;;;17,51214968
0,94483;;;19,95370494
0,94533;;;23,00564902
0,94583;;;27,27837072
0,94633;;;30,3303148
0,94683;;;29,41473158
0,94733;;;24,83681546
0,94783;;;18,4277329
0,94833;;;11,71345593
0,94883;;;6,830345407
0,94933;;;4,083595738
0,94983;;;1,947234884
0,95033;;;-1,715098008
0,95083;;;-5,377430901
0,95133;;;-6,598208532
0,95183;;;-5,377430901
0,95233;;;-4,767042085
0,95283;;;-4,15665327
0,95333;;;-0,1891259698
0,95383;;;6,525151
0,95433;;;10,79787271
0,95483;;;8,661511854
0,95533;;;3,473206923
0,95583;;;-0,4943203775
0,95633;;;-2,630681231
0,95683;;;-3,851458862
0,95733;;;-3,241070047
0,95783;;;-1,715098008
0,95833;;;-1,715098008
0,95883;;;-5,377430901
0,95933;;;-11,48131905
0,95983;;;-16,66962399
0,96033;;;-21,2475401
0,96083;;;-27,35142826
0,96133;;;-34,06570522
0,96183;;;-38,64362134
0,96233;;;-40,77998219
0,96283;;;-42,30595423
0,96333;;;-44,44231509
0,96383;;;-46,27348153
0,96433;;;-47,79945357
0,96483;;;-49,0202312
0,96533;;;-48,71503679
0,96583;;;-45,96828713
0,96633;;;-42,91634305
0,96683;;;-40,47478779
0,96733;;;-38,03323252
0,96783;;;-33,45531641
0,96833;;;-27,96181707
0,96883;;;-24,29948418
0,96933;;;-22,77351214
0,96983;;;-20,33195688
0,97033;;;-16,05923517
0,97083;;;-10,56573583
0,97133;;;-4,767042085
0,97183;;;2,5576237
0,97233;;;11,40826152
0,97283;;;18,12253849
0,97333;;;19,95370494
0,97383;;;19,34331612
0,97433;;;19,95370494
0,97483;;;25,44720428
0,97533;;;34,90823092
0,97583;;;46,50561841
0,97633;;;57,18742268
0,97683;;;64,51208846
0,97733;;;69,09000458
0,97783;;;71,83675425
0,97833;;;73,66792069
0,97883;;;73,66792069
0,97933;;;72,44714306
0,97983;;;71,53155984
0,98033;;;70,92117102
0,98083;;;68,17442136
0,98133;;;60,84975557
0,98183;;;48,64197926
0,98233;;;35,21342532
0,98283;;;23,31084342
0,98333;;;15,07059442
0,98383;;;8,356317446
0,98432;;;1,947234884
0,98482;;;-4,15665327
0,98532;;;-9,344958201
0,98582;;;-13,61767991
0,98632;;;-19,41637365
0,98682;;;-26,74103944
0,98732;;;-32,23453878
0,98782;;;-33,76051082
0,98832;;;-33,76051082
0,98882;;;-35,59167726
0,98932;;;-38,03323252
0,98982;;;-38,94881575
0,99032;;;-39,25401016
0,99082;;;-41,69556542
0,99132;;;-46,57867594
0,99182;;;-52,37736969
0,99232;;;-60,9228131
0,99282;;;-73,43578382
0,99332;;;-85,94875453
0,99382;;;-90,83186506
0,99432;;;-86,86433776
0,99482;;;-80,4552552
0,99532;;;-78,31889434
0,99582;;;-79,53967197
0,99632;;;-78,62408875
0,99682;;;-71,29942296
0,99732;;;-57,26048021
0,99782;;;-40,16959338
0,99832;;;-24,29948418
0,99882;;;-10,87093024
0,99932;;;-1,104709193
0,99982;;;4,083595738
1,00032;;;4,083595738
1,00082;;;-1,715098008
1,00132;;;-9,650152609
1,00182;;;-16,97481839
1,00232;;;-22,16312332
1,00282;;;-23,99428977
1,00332;;;-21,85792892
1,00382;;;-16,66962399
1,00432;;;-9,344958201
1,00482;;;1,642040476
1,00532;;;20,25889935
1,00582;;;44,36925755
1,00632;;;64,81728287
1,00682;;;73,36272629
1,00732;;;73,9731151
1,00782;;;75,80428155
1,00832;;;81,9081697
1,00882;;;85,875697
1,00932;;;83,12894733
1,00982;;;76,10947596
1,01032;;;71,22636543
1,01082;;;70,31078221
1,01132;;;70,61597662
1,01182;;;68,78481017
1,01232;;;63,29131083
1,01282;;;54,74586742
1,01332;;;45,89522959
1,01382;;;41,31731348
1,01432;;;42,84328552
1,01482;;;49,25236808
1,01532;;;56,27183945
1,01582;;;61,46014439
1,01632;;;64,81728287
1,01682;;;67,56403254
1,01732;;;70,31078221
1,01782;;;72,75233747
1,01832;;;73,9731151
1,01882;;;72,44714306
1,01932;;;67,56403254
1,01982;;;59,93417235
1,02032;;;52,91470097
1,02082;;;48,33678485
1,02132;;;47,11600722
1,02182;;;47,42120163
1,02232;;;48,64197926
1,02282;;;48,64197926
1,02332;;;45,59003519
1,02382;;;38,57056381
1,02432;;;30,3303148
1,02482;;;23,61603783
1,02532;;;16,90176086
1,02582;;;7,74592863
1,02632;;;-2,630681231
1,02682;;;-11,48131905
1,02732;;;-18,19559602
1,02782;;;-25,2150674
1,02832;;;-31,92934437
1,02882;;;-35,89687167
1,02932;;;-37,1176493
1,02982;;;-40,16959338
1,03032;;;-47,18906476
1,03082;;;-54,51373054
1,03132;;;-60,61761869
1,03182;;;-67,02670126
1,03232;;;-75,57214467
1,03282;;;-85,03317131
1,03332;;;-92,3578371
1,03382;;;-97,85133643
1,03432;;;-102,1240581
1,03482;;;-105,1760022
1,03532;;;-105,786391
1,03582;;;-106,3967798
1,03632;;;-106,0915854
1,03682;;;-102,734447
1,03732;;;-94,18900354
1,03782;;;-82,59161605
1,03832;;;-70,99422856
1,03882;;;-59,70203547
1,03932;;;-48,40984239
1,03982;;;-38,94881575
1,04032;;;-33,76051082
1,04081;;;-30,70856674
1,04131;;;-25,2150674
1,04181;;;-17,2800128
1,04231;;;-10,26054142
1,04281;;;-5,377430901
1,04331;;;0,1160684379
1,04381;;;8,661511854
1,04431;;;15,68098323
1,04481;;;18,4277329
1,04531;;;19,03812172
1,04581;;;21,47967698
1,04631;;;24,53162105
1,04681;;;23,61603783
1,04731;;;17,20695527
1,04781;;;9,577095077
1,04831;;;5,304373369
1,04881;;;3,77840133
1,04931;;;2,862818107
1,04981;;;2,862818107
1,05031;;;3,77840133
1,05081;;;2,5576237
1,05131;;;-2,020292416
1,05181;;;-9,344958201
1,05231;;;-16,97481839
1,05281;;;-24,90987299
1,05331;;;-32,84492759
1,05381;;;-37,72803812
1,05431;;;-36,20206608
1,05481;;;-30,09817792
1,05531;;;-24,60467859
1,05581;;;-20,94234569
1,05631;;;-16,05923517
1,05681;;;-9,039763793
1,05731;;;-3,241070047
1,05781;;;-1,104709193
1,05831;;;-1,715098008
1,05881;;;-1,715098008
1,05931;;;-1,104709193
1,05981;;;-1,409903601
1,06031;;;-2,935875639
1,06081;;;-2,935875639
1,06131;;;-1,104709193
1,06181;;;2,252429292
1,06231;;;8,051123038
1,06281;;;14,76540001
1,06331;;;18,73292731
1,06381;;;14,4602056
1,06431;;;2,252429292
1,06481;;;-9,650152609
1,06531;;;-14,53326313
1,06581;;;-12,09170787
1,06631;;;-9,344958201
1,06681;;;-11,17612465
1,06731;;;-17,58520721
1,06781;;;-25,82545622
1,06831;;;-33,76051082
1,06881;;;-40,16959338
1,06931;;;-45,96828713
1,06981;;;-52,37736969
1,07031;;;-59,39684106
1,07081;;;-64,8903404
1,07131;;;-64,8903404
1,07181;;;-57,56567462
1,07231;;;-44,44231509
1,07281;;;-28,26701148
1,07331;;;-12,70209669
1,07381;;;-2,325486824
1,07431;;;-0,1891259698
1,07481;;;-5,682625308
1,07531;;;-11,48131905
1,07581;;;-10,56573583
1,07631;;;-2,630681231
1,07681;;;8,051123038
1,07731;;;19,34331612
1,07781;;;33,07706447
1,07831;;;50,77834012
1,07881;;;66,64844932
1,07931;;;72,44714306
1,07981;;;64,51208846
1,08031;;;50,1679513
1,08081;;;40,70692466
1,08131;;;41,62250789
1,08181;;;49,25236808
1,08231;;;53,21989538
1,08281;;;49,55756249
1,08331;;;42,53809111
1,08381;;;39,48614703
1,08431;;;39,79134144
1,08481;;;37,04459177
1,08531;;;27,27837072
1,08581;;;15,98617764
1,08631;;;10,79787271
1,08681;;;15,07059442
1,08731;;;27,88875954
1,08781;;;44,06406315
1,08831;;;59,01858912
1,08881;;;70,92117102
1,08931;;;83,73933615
1,08981;;;102,0510006
1,09031;;;120,9730539
1,09081;;;127,3821364
1,09131;;;116,7003322
1,09181;;;98,08347331
1,09231;;;82,51855852
1,09281;;;72,44714306
1,09331;;;66,0380605
1,09381;;;66,34325491
1,09431;;;74,27830951
1,09481;;;80,68739207
1,09531;;;73,9731151
1,09581;;;52,60950656
1,09631;;;25,44720428
1,09680;;;-0,7995147852
1,09730;;;-26,13065062
1,09780;;;-48,71503679
1,09830;;;-65,19553481
1,09880;;;-76,7929223
1,09930;;;-90,22147624
1,09980;;;-105,786391
1,10030;;;-117,0785841
1,10080;;;-118,2993618
1,10130;;;-116,4681953
1,10180;;;-122,8772779
1,10230;;;-140,2733591
1,10280;;;-154,6174963
1,10330;;;-148,5136081
1,10380;;;-119,214945
1,10430;;;-80,15006079
1,10480;;;-45,96828713
1,10530;;;-17,89040162
1,10580;;;10,4926783
1,10630;;;40,40173025
1,10680;;;63,90169965
1,10730;;;79,46661444
1,10780;;;95,33672364
1,10830;;;116,7003322
1,10880;;;137,1483575
1,10930;;;147,219773
1,10980;;;143,8626345
1,11030;;;131,0444693
1,11080;;;112,7328049
1,11130;;;93,20036279
1,11180;;;77,9406424
1,11230;;;67,56403254
1,11280;;;58,71339472
1,11330;;;47,11600722
1,11380;;;33,07706447
1,11430;;;16,29137205
1,11480;;;-2,630681231
1,11530;;;-20,63715129
1,11580;;;-29,48778911
1,11630;;;-24,90987299
1,11680;;;-11,78651346
1,11730;;;2,862818107
1,11780;;;18,4277329
1,11830;;;35,51861973
1,11880;;;48,03159045
1,11930;;;50,77834012
1,11980;;;46,50561841
1,12030;;;44,67445196
1,12080;;;46,200424
1,12130;;;42,2328967
1,12180;;;26,3627875
1,12230;;;5,304373369
1,12280;;;-9,650152609
1,12330;;;-15,75404076
1,12380;;;-18,80598484
1,12430;;;-23,38390096
1,12480;;;-25,52026181
1,12530;;;-23,99428977
1,12580;;;-25,82545622
1,12630;;;-40,16959338
1,12680;;;-66,41631244
1,12730;;;-95,10458676
1,12780;;;-121,6565002
1,12830;;;-146,9876361
1,12880;;;-171,7083831
1,12930;;;-190,9356308
1,12980;;;-203,7537959
1,13030;;;-217,4875443
1,13080;;;-233,052459
1,13130;;;-241,5979025
1,13180;;;-235,7992087
1,13230;;;-220,8446827
1,13280;;;-206,80574
1,13330;;;-192,1564084
1,13380;;;-168,3512446
1,13430;;;-133,5590821
1,13480;;;-95,10458676
1,13530;;;-57,56567462
1,13580;;;-20,63715129
1,13630;;;12,01865034
1,13680;;;34,90823092
1,13730;;;51,69392334
1,13780;;;77,63544799
1,13830;;;116,0899434
1,13880;;;151,4924947
1,13930;;;167,3626039
1,13980;;;167,0574095
1,14030;;;164,6158542
1,14080;;;166,4470206
1,14130;;;166,752215
1,14180;;;164,9210486
1,14230;;;168,5833815
1,14280;;;179,2651858
1,14330;;;186,895046
1,14380;;;184,7586851
1,14430;;;179,2651858
1,14480;;;180,4859634
1,14530;;;184,7586851
1,14580;;;178,6547969
1,14630;;;156,3756052
1,14680;;;127,3821364
1,14730;;;102,9665838
1,14780;;;85,875697
1,14830;;;70,0055878
1,14880;;;51,08353452
1,14930;;;29,71992598
1,14980;;;7,74592863
1,15030;;;-11,78651346
1,15080;;;-26,74103944
1,15130;;;-33,150122
1,15180;;;-31,31895556
1,15230;;;-26,43584503
1,15280;;;-24,60467859
1,15329;;;-26,74103944
1,15379;;;-27,96181707
1,15429;;;-26,74103944
1,15479;;;-30,70856674
1,15529;;;-51,46178646
1,15579;;;-89,30589302
1,15629;;;-128,6759716
1,15679;;;-154,0071075
1,15729;;;-167,130467
1,15779;;;-184,5265482
1,15829;;;-215,045989
1,15879;;;-251,9745123
1,15929;;;-280,9679811
1,15979;;;-294,396535
1,16029;;;-292,870563
1,16079;;;-275,4744817
1,16129;;;-238,8511528
1,16179;;;-183,3057706
1,16229;;;-118,9097506
1,16279;;;-59,70203547
1,16329;;;-12,70209669
1,16379;;;31,24589802
1,16429;;;84,65491937
1,16479;;;143,5574401
1,16529;;;188,1158236
1,16579;;;205,8170992
1,16629;;;205,5119048
1,16679;;;203,375544
1,16729;;;200,9339887
1,16779;;;187,2002404
1,16829;;;159,4275493
1,16879;;;128,9081085
1,16929;;;105,4081391
1,16979;;;81,9081697
1,17029;;;49,25236808
1,17079;;;11,10306712
1,17129;;;-15,44884635
1,17179;;;-19,72156806
1,17229;;;-2,325486824
1,17279;;;27,88875954
1,17329;;;65,42767169
1,17379;;;101,7458062
1,17429;;;124,9405812
1,17479;;;128,9081085
1,17529;;;120,0574707
1,17579;;;112,1224161
1,17629;;;109,6808608
1,17679;;;101,1354174
1,17729;;;74,27830951
1,17779;;;31,85628684
1,17829;;;-10,26054142
1,17879;;;-41,0851766
1,17929;;;-62,75397955
1,17979;;;-84,7279769
1,18029;;;-110,0591127
1,18079;;;-135,0850542
1,18129;;;-152,4811354
1,18179;;;-157,6694403
1,18229;;;-150,9551634
1,18279;;;-136,6110262
1,18329;;;-117,6889729
1,18379;;;-96,6305588
1,18429;;;-75,26695026
1,18479;;;-55,73450817
1,18529;;;-40,77998219
1,18579;;;-31,92934437
1,18629;;;-28,87740029
1,18679;;;-30,70856674
1,18729;;;-34,98128845
1,18779;;;-36,81245489
1,18829;;;-35,28648286
1,18879;;;-32,84492759
1,18929;;;-31,31895556
1,18979;;;-31,62414996
1,19029;;;-34,37089963
1,19079;;;-44,74750949
1,19129;;;-67,33189566
1,19179;;;-98,15653084
1,19229;;;-125,3188331
1,19279;;;-136,0006374
1,19329;;;-130,2019437
1,19379;;;-119,5201394
1,19429;;;-117,3837785
1,19479;;;-123,1824723
1,19529;;;-124,4032499
1,19579;;;-111,5850848
1,19629;;;-90,83186506
1,19679;;;-76,18253349
1,19729;;;-69,16306211
1,19779;;;-56,9552858
1,19829;;;-27,35142826
1,19879;;;16,90176086
1,19929;;;65,12247728
1,19979;;;106,0185279
1,20029;;;135,317191
1,20079;;;154,5444387
1,20129;;;170,1093535
1,20179;;;183,8431019
1,20229;;;190,5573788
1,20279;;;184,4534907
1,20329;;;170,1093535
1,20379;;;156,0704108
1,20429;;;139,8951072
1,20479;;;107,5444999
1,20529;;;61,76533879
1,20579;;;26,97317632
1,20629;;;21,78487138
1,20679;;;33,38225888
1,20729;;;38,87575822
1,20779;;;41,92770229
1,20829;;;63,90169965
1,20879;;;102,356195
1,20928;;;121,8886371
1,20978;;;96,86269568
1,21028;;;43,14847992
1,21078;;;-4,767042085
1,21128;;;-28,87740029
1,21178;;;-34,67609404
1,21228;;;-33,150122
1,21278;;;-37,72803812
1,21328;;;-61,53320192
1,21378;;;-101,5136693
1,21428;;;-130,5071381
1,21478;;;-126,5396108
1,21528;;;-103,0396414
1,21578;;;-93,57861473
1,21628;;;-106,7019743
1,21678;;;-117,0785841
1,21728;;;-102,4292525
1,21778;;;-69,46825652
1,21828;;;-35,28648286
1,21878;;;-4,15665327
1,21928;;;28,80434276
1,21978;;;59,32378353
1,22028;;;79,46661444
1,22078;;;91,36919634
1,22128;;;105,1029447
1,22178;;;125,2457756
1,22228;;;144,1678289
1,22278;;;150,8821058
1,22328;;;140,2003016
1,22378;;;116,3951378
1,22428;;;94,42114042
1,22478;;;86,18089141
1,22528;;;87,40166904
1,22578;;;79,46661444
1,22628;;;55,35625623
1,22678;;;28,80434276
1,22728;;;19,03812172
1,22778;;;30,63550921
1,22828;;;57,18742268
1,22878;;;88,92764108
1,22928;;;112,1224161
1,22978;;;112,7328049
1,23028;;;92,58997397
1,23078;;;76,71986477
1,23128;;;83,43414174
1,23178;;;100,5250286
1,23228;;;101,4406118
1,23278;;;80,38219766
1,23328;;;55,35625623
1,23378;;;41,01211907
1,23428;;;32,46667565
1,23478;;;21,78487138
1,23528;;;8,966706261
1,23578;;;-2,325486824
1,23628;;;-12,70209669
1,23678;;;-24,29948418
1,23728;;;-38,33842693
1,23778;;;-55,42931376
1,23828;;;-75,87733908
1,23878;;;-96,6305588
1,23928;;;-114,9422233
1,23978;;;-134,4746654
1,24028;;;-156,4486627
1,24078;;;-175,6759104
1,24128;;;-185,4421314
1,24178;;;-190,0200476
1,24228;;;-197,0395189
1,24278;;;-203,4486015
1,24328;;;-199,1758798
1,24378;;;-180,8642153
1,24428;;;-158,890218
1,24478;;;-141,7993311
1,24528;;;-127,7603884
1,24578;;;-109,4487239
1,24628;;;-86,86433776
1,24678;;;-65,80592363
1,24728;;;-48,71503679
1,24778;;;-29,79298352
1,24828;;;-4,461847678
1,24878;;;23,61603783
1,24928;;;48,33678485
1,24978;;;67,86922695
1,25028;;;84,65491937
1,25078;;;96,86269568
1,25128;;;99,91463976
1,25178;;;94,42114042
1,25228;;;86,79128023
1,25278;;;79,16142003
1,25328;;;65,12247728
1,25378;;;43,14847992
1,25428;;;21,78487138
1,25478;;;9,577095077
1,25528;;;1,031651661
1,25578;;;-16,05923517
1,25628;;;-47,18906476
1,25678;;;-84,4227825
1,25728;;;-117,3837785
1,25778;;;-136,9162206
1,25828;;;-141,4941367
1,25878;;;-140,8837479
1,25928;;;-146,0720529
1,25978;;;-153,3967186
1,26028;;;-146,3772473
1,26078;;;-121,6565002
1,26128;;;-96,93575321
1,26178;;;-87,77992098
1,26228;;;-88,3903098
1,26278;;;-84,4227825
1,26328;;;-73,74097823
1,26378;;;-60,31242429
1,26428;;;-42,30595423
1,26478;;;-20,63715129
1,26528;;;-6,293014124
1,26577;;;-5,072236493
1,26627;;;-1,715098008
1,26677;;;21,78487138
1,26727;;;59,62897794
1,26777;;;84,34972496
1,26827;;;81,9081697
1,26877;;;65,42767169
1,26927;;;57,79781149
1,26977;;;69,39519899
1,27027;;;95,64191805
1,27077;;;124,6353868
1,27127;;;149,3561338
1,27177;;;172,2457144
1,27227;;;202,1547663
1,27277;;;243,6612058
1,27327;;;289,4403669
1,27377;;;327,2844735
1,27427;;;348,3428876
1,27477;;;350,1740541
1,27527;;;334,3039449
1,27577;;;301,0377544
1,27627;;;246,7131499
1,27677;;;167,6677983
1,27727;;;73,05753188
1,27777;;;-11,17612465
1,27827;;;-68,24747889
1,27877;;;-104,5656134
1,27927;;;-138,4421927
1,27977;;;-170,7927999
1,28027;;;-187,8836867
1,28077;;;-183,610965
1,28127;;;-165,9096894
1,28177;;;-141,7993311
1,28227;;;-112,8058624
1,28277;;;-84,4227825
1,28327;;;-59,70203547
1,28377;;;-29,1825947
1,28427;;;14,15501119
1,28477;;;54,1354786
1,28527;;;64,81728287
1,28577;;;47,72639604
1,28627;;;30,94070362
1,28677;;;29,71992598
1,28727;;;35,51861973
1,28777;;;44,36925755
1,28827;;;66,0380605
1,28877;;;100,830223
1,28927;;;129,5184973
1,28977;;;142,031468
1,29027;;;149,9665226
1,29077;;;162,1742989
1,29127;;;169,8041591
1,29177;;;159,7327437
1,29227;;;131,3496637
1,29277;;;87,70686345
1,29327;;;33,07706447
1,29377;;;-17,89040162
1,29427;;;-53,90334173
1,29477;;;-84,11758809
1,29527;;;-122,5720835
1,29577;;;-158,2798292
1,29627;;;-163,4681341
1,29677;;;-142,7149144
1,29727;;;-132,0331101
1,29777;;;-147,9032193
1,29827;;;-167,130467
1,29877;;;-169,5720222
1,29927;;;-165,2993005
1,29977;;;-163,1629397
1,30027;;;-150,0395802
1,30077;;;-119,5201394
1,30127;;;-96,3253644
1,30177;;;-101,5136693
1,30227;;;-125,6240275
1,30277;;;-150,649969
1,30327;;;-175,370716
1,30377;;;-202,5330183
1,30427;;;-214,4356002
1,30477;;;-194,9031581
1,30527;;;-152,175941
1,30577;;;-105,786391
1,30627;;;-63,36436836
1,30677;;;-24,90987299
1,30727;;;2,5576237
1,30777;;;16,59656645
1,30827;;;29,41473158
1,30877;;;50,1679513
1,30927;;;71,53155984
1,30977;;;87,09647463
1,31027;;;111,5120272
1,31077;;;161,5639101
1,31127;;;228,7066798
1,31177;;;287,9143949
1,31227;;;326,9792791
1,31277;;;351,7000261
1,31327;;;369,4013018
1,31377;;;378,8623284
1,31427;;;379,7779116
1,31477;;;373,3688291
1,31527;;;358,7194975
1,31577;;;331,2520008
1,31627;;;288,8299781
1,31677;;;231,1482351
1,31727;;;159,4275493
1,31777;;;78,85622562
1,31827;;;0,7264572533
1,31877;;;-61,53320192
1,31927;;;-102,4292525
1,31977;;;-127,1499996
1,32027;;;-144,8512752
1,32077;;;-161,3317732
1,32127;;;-175,0655216
1,32176;;;-185,4421314
1,32226;;;-197,6499078
1,32276;;;-211,9940449
1,32326;;;-218,4031275
1,32376;;;-205,8901568
1,32426;;;-178,7278545
1,32476;;;-148,5136081
1,32526;;;-119,8253338
1,32576;;;-94,79939236
1,32626;;;-85,94875453
1,32676;;;-105,1760022
1,32726;;;-140,2733591
1,32776;;;-164,9941061
1,32826;;;-173,5395495
1,32876;;;-183,610965
1,32926;;;-204,3641847
1,32976;;;-220,2342939
1,33026;;;-216,8771554
1,33076;;;-200,7018518
1,33126;;;-185,136937
1,33176;;;-173,2343551
1,33226;;;-163,7733285
1,33276;;;-154,6174963
1,33326;;;-136,0006374
1,33376;;;-96,02016999
1,33426;;;-42,00075982
1,33476;;;1,642040476
1,33526;;;23,92123224
1,33576;;;39,79134144
1,33626;;;64,51208846
1,33676;;;91,06400193
1,33726;;;105,7133335
1,33776;;;108,7652776
1,33826;;;109,070472
1,33876;;;110,596444
1,33926;;;114,5639713
1,33976;;;123,4146091
1,34026;;;130,4340805
1,34076;;;117,9211098
1,34126;;;80,68739207
1,34176;;;41,92770229
1,34226;;;27,58356513
1,34276;;;34,2978421
1,34326;;;33,99264769
1,34376;;;11,40826152
1,34426;;;-19,41637365
1,34476;;;-35,89687167
1,34526;;;-34,67609404
1,34576;;;-29,48778911
1,34626;;;-32,53973319
1,34676;;;-44,13712068
1,34726;;;-61,22800751
1,34776;;;-80,4552552
1,34826;;;-93,27342032
1,34876;;;-89,30589302
1,34926;;;-67,94228448
1,34976;;;-42,00075982
1,35026;;;-20,63715129
1,35076;;;-0,4943203775
1,35126;;;23,92123224
1,35176;;;47,72639604
1,35226;;;64,51208846
1,35276;;;82,51855852
1,35326;;;112,4276105
1,35376;;;146,3041897
1,35426;;;162,7846877
1,35476;;;158,8171604
1,35526;;;154,5444387
1,35576;;;165,5314374
1,35626;;;179,5703802
1,35676;;;177,1288249
1,35726;;;159,1223549
1,35776;;;144,7782177
1,35826;;;137,7587463
1,35876;;;115,784749
1,35926;;;59,62897794
1,35976;;;-15,75404076
1,36026;;;-78,01369993
1,36076;;;-114,9422233
1,36126;;;-142,1045256
1,36176;;;-168,0460502
1,36226;;;-177,5070768
1,36276;;;-158,890218
1,36326;;;-131,7279157
1,36376;;;-124,7084443
1,36426;;;-136,3058318
1,36476;;;-141,1889423
1,36526;;;-128,981166
1,36576;;;-107,3123631
1,36626;;;-77,40331112
1,36676;;;-35,59167726
1,36726;;;1,947234884
1,36776;;;10,18748389
1,36826;;;-2,325486824
1,36876;;;9,577095077
1,36926;;;75,19389273
1,36976;;;166,752215
1,37026;;;235,4209568
1,37076;;;259,531315
1,37126;;;246,4079555
1,37176;;;207,6482657
1,37226;;;151,1873003
1,37276;;;95,64191805
1,37326;;;58,40820031
1,37376;;;39,79134144
1,37426;;;26,66798191
1,37476;;;14,4602056
1,37526;;;10,79787271
1,37576;;;20,56409375
1,37626;;;37,34978618
1,37676;;;57,18742268
1,37726;;;82,21336411
1,37776;;;106,0185279
1,37825;;;103,8821671
1,37875;;;52,30431215
1,37925;;;-44,13712068
1,37975;;;-153,0915242
1,38025;;;-244,6498465
1,38075;;;-309,9614498
1,38125;;;-352,078278
1,38175;;;-368,2535817
1,38225;;;-353,6042501
1,38275;;;-313,3185883
1,38325;;;-261,435539
1,38375;;;-210,4680729
1,38425;;;-164,6889117
1,38475;;;-115,5526121
1,38525;;;-45,0527039
1,38575;;;57,79781149
1,38625;;;174,0768808
1,38675;;;260,4468982
1,38725;;;292,7975054
1,38775;;;289,7455613
1,38825;;;286,9988117
1,38875;;;298,5961992
1,38925;;;312,3299475
1,38975;;;314,7715028
1,39025;;;298,5961992
1,39075;;;260,4468982
1,39125;;;207,9534601
1,39175;;;170,1093535
1,39225;;;172,2457144
1,39275;;;202,7651552
1,39325;;;216,8040979
1,39375;;;177,1288249
1,39425;;;80,99258648
1,39475;;;-41,0851766
1,39525;;;-145,461664
1,39575;;;-201,3122406
1,39625;;;-225,1174044
1,39675;;;-278,8316202
1,39725;;;-404,5717162
1,39775;;;-563,5780026
1,39825;;;-667,6492956
1,39875;;;-675,2791558
1,39925;;;-626,753245
1,39975;;;-574,5650013
1,40025;;;-520,5455911
1,40075;;;-437,2275178
1,40125;;;-323,6951981
1,40175;;;-206,1953512
1,40225;;;-99,07211407
1,40275;;;2,862818107
1,40325;;;104,1873615
1,40375;;;201,5443775
1,40425;;;296,7650327
1,40475;;;392,5960767
1,40525;;;471,9466227
1,40575;;;508,2647573
1,40625;;;495,1413977
1,40675;;;456,9920968
1,40725;;;423,4207119
1,40775;;;399,3103537
1,40825;;;366,9597465
1,40875;;;305,6156705
1,40925;;;212,8365706
1,40975;;;113,9535825
1,41025;;;45,28484078
1,41075;;;24,53162105
1,41125;;;40,70692466
1,41175;;;69,70039339
1,41225;;;95,33672364
1,41275;;;110,9016384
1,41325;;;116,0899434
1,41375;;;116,7003322
1,41425;;;119,4470818
1,41475;;;116,7003322
1,41525;;;88,31725226
1,41575;;;25,75239868
1,41625;;;-52,07217528
1,41675;;;-116,1630009
1,41725;;;-147,9032193
1,41775;;;-146,3772473
1,41825;;;-121,9616946
1,41875;;;-93,88380913
1,41925;;;-75,26695026
1,41975;;;-59,09164666
1,42025;;;-32,23453878
1,42075;;;-4,767042085
1,42125;;;-0,7995147852
1,42175;;;-14,22806872
1,42225;;;-7,208597347
1,42275;;;29,41473158
1,42325;;;56,27183945
1,42375;;;42,53809111
1,42425;;;14,4602056
1,42475;;;13,54462238
1,42525;;;37,04459177
1,42575;;;51,38872893
1,42625;;;40,70692466
1,42675;;;5,914762184
1,42725;;;-60,61761869
1,42775;;;-153,701913
1,42825;;;-228,7797373
1,42875;;;-253,5004844
1,42925;;;-264,7926774
1,42975;;;-314,2341715
1,43025;;;-377,7146083
1,43075;;;-379,8509692
1,43125;;;-314,5393659
1,43175;;;-260,5199557
1,43225;;;-262,3511222
1,43275;;;-266,3186495
1,43325;;;-211,6888505
1,43375;;;-122,2668891
1,43424;;;-60,9228131
1,43474;;;-39,25401016
1,43524;;;-23,38390096
1,43574;;;6,830345407
1,43624;;;46,200424
1,43674;;;86,79128023
1,43724;;;112,1224161
1,43774;;;94,42114042
1,43824;;;37,96017499
1,43874;;;-2,935875639
1,43924;;;9,882289484
1,43974;;;47,42120163
1,44024;;;55,96664505
1,44074;;;28,80434276
1,44124;;;-3,546264455
1,44174;;;-27,04623385
1,44224;;;-40,47478779
1,44274;;;-28,26701148
1,44324;;;18,4277329
1,44374;;;78,85622562
1,44424;;;135,0119966
1,44474;;;198,187239
1,44524;;;263,4988423
1,44574;;;280,5897291
1,44624;;;225,0443469
1,44674;;;155,1548276
1,44724;;;129,8236917
1,44774;;;103,5769726
1,44824;;;-9,650152609
1,44874;;;-188,7992699
1,44924;;;-309,351061
1,44974;;;-306,6043113
1,45024;;;-249,2277627
1,45074;;;-230,6109038
1,45124;;;-261,7407334
1,45174;;;-302,0263952
1,45224;;;-327,6627254
1,45274;;;-328,5783087
1,45324;;;-286,7666748
1,45374;;;-203,7537959
1,45424;;;-114,02664
1,45474;;;-38,64362134
1,45524;;;44,97964637
1,45574;;;159,1223549
1,45624;;;283,3364788
1,45674;;;384,9662165
1,45724;;;464,621957
1,45774;;;538,1738092
1,45824;;;593,1088026
1,45874;;;609,894495
1,45924;;;603,4854125
1,45974;;;602,5698292
1,46024;;;594,0243858
1,46074;;;529,6283658
1,46124;;;399,9207425
1,46174;;;260,1417038
1,46224;;;167,3626039
1,46274;;;119,4470818
1,46324;;;77,33025359
1,46374;;;21,47967698
1,46424;;;-35,89687167
1,46474;;;-83,20200486
1,46524;;;-121,3513058
1,46574;;;-150,3447746
1,46624;;;-161,9421621
1,46674;;;-154,0071075
1,46724;;;-139,3577759
1,46774;;;-139,6629703
1,46824;;;-165,2993005
1,46874;;;-200,7018518
1,46924;;;-211,3836561
1,46974;;;-180,8642153
1,47024;;;-130,5071381
1,47074;;;-92,6630315
1,47124;;;-69,16306211
1,47174;;;-43,22153746
1,47224;;;-21,85792892
1,47274;;;-31,62414996
1,47324;;;-61,22800751
1,47374;;;-59,70203547
1,47424;;;-15,44884635
1,47474;;;11,40826152
1,47524;;;-33,76051082
1,47574;;;-124,0980555
1,47624;;;-193,377186
1,47674;;;-223,286238
1,47724;;;-242,5134857
1,47774;;;-262,3511222
1,47824;;;-269,3705936
1,47874;;;-270,2861768
1,47924;;;-292,870563
1,47974;;;-333,1562248
1,48024;;;-348,7211396
1,48074;;;-312,403005
1,48124;;;-239,4615416
1,48174;;;-156,1434683
1,48224;;;-68,8578677
1,48274;;;17,81734408
1,48324;;;87,09647463
1,48374;;;130,4340805
1,48424;;;169,8041591
1,48474;;;233,2845959
1,48524;;;314,4663084
1,48574;;;370,316885
1,48624;;;361,4662472
1,48674;;;291,5767278
1,48724;;;203,6807384
1,48774;;;142,3366624
1,48824;;;120,3626651
1,48874;;;117,6159154
1,48924;;;113,0379993
1,48974;;;104,1873615
1,49024;;;96,25230686
1,49073;;;86,48608582
1,49123;;;73,36272629
1,49173;;;68,17442136
1,49223;;;85,26530819
1,49273;;;116,3951378
1,49323;;;135,0119966
1,49373;;;127,3821364
1,49423;;;102,356195
1,49473;;;70,0055878
1,49523;;;26,05759309
1,49573;;;-31,31895556
1,49623;;;-89,00069861
1,49673;;;-133,8642765
1,49723;;;-169,8772167
1,49773;;;-203,1434071
1,49823;;;-228,1693485
1,49873;;;-240,9875136
1,49923;;;-248,3121794
1,49973;;;-245,5654298
1,50023;;;-215,9615722
1,50073;;;-168,9616334
1,50123;;;-157,9746348
1,50173;;;-219,0135163
1,50223;;;-314,2341715
1,50273;;;-380,1561636
1,50323;;;-406,0976882
1,50373;;;-417,6950757
1,50423;;;-403,9613274
1,50473;;;-321,8640317
1,50523;;;-177,5070768
1,50573;;;-34,98128845
1,50623;;;69,09000458
1,50673;;;162,7846877
1,50723;;;272,3494801
1,50773;;;377,3363564
1,50823;;;450,2778198
1,50873;;;498,4985362
1,50923;;;529,017977
1,50973;;;518,6413671
1,51023;;;442,953154
1,51073;;;315,9922804
1,51123;;;174,9924641
1,51173;;;48,03159045
1,51223;;;-49,32542561
1,51273;;;-119,214945
1,51323;;;-186,0525203
1,51373;;;-273,3381209
1,51423;;;-355,4354165
1,51473;;;-373,747081
1,51523;;;-307,8250889
1,51573;;;-200,7018518
1,51623;;;-101,2084749
1,51673;;;-14,53326313
1,51723;;;75,80428155
1,51773;;;172,8561032
1,51823;;;267,1611752
1,51873;;;347,4273044
1,51923;;;389,8493271
1,51973;;;368,4857185
1,52023;;;297,9858104
1,52073;;;234,2001791
1,52123;;;215,5833203
1,52173;;;226,2651245
1,52223;;;236,33654
1,52273;;;241,2196505
1,52323;;;243,9664002
1,52373;;;227,1807078
1,52423;;;175,2976585
1,52473;;;108,1548888
1,52523;;;55,96664505
1,52573;;;14,76540001
1,52623;;;-39,86439897
1,52673;;;-101,8188637
1,52723;;;-130,5071381
1,52773;;;-106,0915854
1,52823;;;-56,65009139
1,52873;;;-28,57220589
1,52923;;;-43,52673186
1,52973;;;-91,13705946
1,53023;;;-148,5136081
1,53073;;;-191,5460196
1,53123;;;-206,80574
1,53173;;;-195,5135469
1,53223;;;-167,4356614
1,53273;;;-127,1499996
1,53323;;;-78,01369993
1,53373;;;-32,23453878
1,53423;;;1,336846069
1,53473;;;36,12900855
1,53523;;;86,79128023
1,53573;;;136,5379687
1,53623;;;149,9665226
1,53673;;;125,55097
1,53723;;;102,0510006
1,53773;;;102,9665838
1,53823;;;109,9860552
1,53873;;;102,0510006
1,53923;;;82,82375293
1,53973;;;51,38872893
1,54023;;;-15,75404076
1,54073;;;-123,4876667
1,54123;;;-226,6433765
1,54173;;;-277,6108426
1,54223;;;-276,0848705
1,54273;;;-248,3121794
1,54323;;;-204,3641847
1,54373;;;-147,9032193
1,54423;;;-98,15653084
1,54473;;;-66,72150685
1,54523;;;-33,76051082
1,54573;;;18,12253849
1,54623;;;70,61597662
1,54672;;;99,30425094
1,54722;;;114,5639713
1,54772;;;139,5899128
1,54822;;;166,4470206
1,54872;;;174,3820752
1,54922;;;167,0574095
1,54972;;;157,5963828
1,55022;;;131,6548582
1,55072;;;63,59650524
1,55122;;;-32,53973319
1,55172;;;-109,7539183
1,55222;;;-138,4421927
1,55272;;;-140,8837479
1,55322;;;-180,5590209
1,55372;;;-319,7276708
1,55422;;;-554,7273648
1,55472;;;-785,7595314
1,55522;;;-892,5775741
1,55572;;;-865,1100774
1,55622;;;-818,1101386
1,55672;;;-847,4088017
1,55722;;;-909,3632665
1,55772;;;-881,285381
1,55822;;;-710,9869015
1,55872;;;-450,6560717
1,55922;;;-176,896688
1,55972;;;74,58350392
1,56022;;;300,73256
1,56072;;;507,9595629
1,56122;;;702,3684006
1,56172;;;877,2447962
1,56222;;;1010,309558
1,56272;;;1086,302965
1,56322;;;1108,887352
1,56372;;;1078,9783
1,56422;;;989,8615326
1,56472;;;861,374687
1,56522;;;752,7254778
1,56572;;;704,5047614
1,56622;;;687,1086802
1,56672;;;633,3944644
1,56722;;;510,4011181
1,56772;;;337,3558889
1,56822;;;154,2392443
1,56872;;;0,4212628456
1,56922;;;-92,3578371
1,56972;;;-120,740917
1,57022;;;-113,7214456
1,57072;;;-107,0071687
1,57122;;;-120,4357226
1,57172;;;-171,0979943
1,57222;;;-267,5394271
1,57272;;;-374,6626642
1,57322;;;-425,9353247
1,57372;;;-408,5392435
1,57422;;;-397,5522448
1,57472;;;-457,3703487
1,57522;;;-540,9936164
1,57572;;;-550,4546431
1,57622;;;-471,7144859
1,57672;;;-381,6821356
1,57722;;;-321,8640317
1,57772;;;-254,4160676
1,57822;;;-151,8707466
1,57872;;;-56,9552858
1,57922;;;-8,12418057
1,57972;;;33,07706447
1,58022;;;126,1613588
1,58072;;;253,4274268
1,58122;;;342,8493883
1,58172;;;357,1935254
1,58222;;;320,8753909
1,58272;;;265,3300087
1,58322;;;194,5249061
1,58372;;;108,7652776
1,58422;;;19,03812172
1,58472;;;-61,83839633
1,58522;;;-124,0980555
1,58572;;;-152,4811354
1,58622;;;-139,0525815
1,58672;;;-102,1240581
1,58722;;;-73,43578382
1,58772;;;-68,55267329
1,58822;;;-80,7604496
1,58872;;;-90,22147624
1,58922;;;-69,46825652
1,58972;;;0,7264572533
1,59022;;;107,2393055
1,59072;;;202,7651552
1,59122;;;248,5443163
1,59172;;;241,2196505
1,59222;;;191,1677677
1,59272;;;110,2912496
1,59322;;;30,02512039
1,59372;;;-5,072236493
1,59422;;;4,693984553
1,59472;;;5,609567777
1,59522;;;-41,39037101
1,59572;;;-113,7214456
1,59622;;;-173,5395495
1,59672;;;-219,3187107
1,59722;;;-248,6173738
1,59772;;;-228,4745429
1,59822;;;-165,6044949
1,59872;;;-144,5460808
1,59922;;;-225,1174044
1,59972;;;-341,3964738
1,60022;;;-375,5782474
1,60072;;;-307,5198945
1,60122;;;-208,6369064
1,60172;;;-123,1824723
1,60222;;;-37,72803812
1,60272;;;48,03159045
1,60321;;;109,9860552
1,60371;;;150,271717
1,60421;;;190,2521844
1,60471;;;223,2131805
1,60521;;;237,2521232
1,60571;;;253,7326212
1,60621;;;262,2780647
1,60671;;;157,9015772
1,60721;;;-141,7993311
1,60771;;;-537,3312835
1,60821;;;-814,4478057
1,60871;;;-882,811353
1,60921;;;-827,8763597
1,60971;;;-732,35051
1,61021;;;-570,9026684
1,61071;;;-325,2211702
1,61121;;;-75,57214467
1,61171;;;96,55750127
1,61221;;;213,4469594
1,61271;;;333,9987505
1,61321;;;451,8037918
1,61371;;;521,6933112
1,61421;;;537,258226
1,61471;;;529,6283658
1,61521;;;515,8946175
1,61571;;;492,0894537
1,61621;;;452,1089862
1,61671;;;382,2194669
1,61721;;;274,485841
1,61771;;;160,6483269
1,61821;;;98,99905653
1,61871;;;103,8821671
1,61921;;;131,9600526
1,61971;;;153,6288555
1,62021;;;193,9145173
1,62071;;;275,0962298
1,62121;;;366,9597465
1,62171;;;424,0311007
1,62221;;;441,1219876
1,62271;;;435,3232938
1,62321;;;405,7194363
1,62371;;;344,0701659
1,62421;;;265,3300087
1,62471;;;190,5573788
1,62521;;;112,4276105
1,62571;;;10,18748389
1,62621;;;-106,7019743
1,62671;;;-197,6499078
1,62721;;;-232,7472646
1,62771;;;-220,5394883
1,62821;;;-192,7667972
1,62871;;;-169,8772167
1,62921;;;-153,3967186
1,62971;;;-135,3902486
1,63021;;;-113,4162512
1,63071;;;-90,83186506
1,63121;;;-74,96175586
1,63171;;;-72,5202006
1,63221;;;-82,89681046
1,63271;;;-92,96822591
1,63321;;;-89,30589302
1,63371;;;-80,4552552
1,63421;;;-103,3448358
1,63471;;;-184,5265482
1,63521;;;-302,3315896
1,63571;;;-402,1301609
1,63621;;;-447,2989333
1,63671;;;-441,1950451
1,63721;;;-402,4353553
1,63771;;;-344,7536123
1,63821;;;-284,6303139
1,63871;;;-239,4615416
1,63921;;;-208,331712
1,63971;;;-175,0655216
1,64021;;;-139,3577759
1,64071;;;-121,3513058
1,64121;;;-128,6759716
1,64171;;;-141,4941367
1,64221;;;-142,1045256
1,64271;;;-135,695443
1,64321;;;-124,4032499
1,64371;;;-98,15653084
1,64421;;;-64,27995159
1,64471;;;-54,51373054
1,64521;;;-72,21500619
1,64571;;;-67,94228448
1,64621;;;-1,715098008
1,64671;;;95,33672364
1,64721;;;174,0768808
1,64771;;;240,3040673
1,64821;;;328,8104455
1,64871;;;416,4012405
1,64921;;;435,3232938
1,64971;;;375,8103843
1,65021;;;307,446837
1,65071;;;282,72609
1,65121;;;277,8429794
1,65171;;;247,0183443
1,65221;;;182,6223242
1,65271;;;98,99905653
1,65321;;;10,18748389
1,65371;;;-55,42931376
1,65421;;;-70,07864533
1,65471;;;-49,0202312
1,65521;;;-36,50726049
1,65571;;;-33,45531641
1,65621;;;-3,241070047
1,65671;;;34,2978421
1,65721;;;2,5576237
1,65771;;;-112,8058624
1,65821;;;-222,0654604
1,65871;;;-262,6563166
1,65920;;;-286,4614804
1,65970;;;-349,9419172
1,66020;;;-400,9093833
1,66070;;;-362,4548879
1,66120;;;-261,7407334
1,66170;;;-183,9161594
1,66220;;;-140,8837479
1,66270;;;-81,06564401
1,66320;;;6,830345407
1,66370;;;94,11594601
1,66420;;;172,8561032
1,66470;;;232,6742071
1,66520;;;211,0054042
1,66570;;;74,58350392
1,66620;;;-77,09811671
1,66670;;;-97,24094762
1,66720;;;18,73292731
1,66770;;;127,9925253
1,66820;;;132,265247
1,66870;;;87,09647463
1,66920;;;91,36919634
1,66970;;;157,5963828
1,67020;;;234,5053736
1,67070;;;292,1871166
1,67120;;;340,407833
1,67170;;;384,9662165
1,67220;;;415,7908517
1,67270;;;424,3362951
1,67320;;;413,3492965
1,67370;;;393,2064656
1,67420;;;370,316885
1,67470;;;334,6091393
1,67520;;;268,6871472
1,67570;;;181,0963522
1,67620;;;111,8172217
1,67670;;;87,40166904
1,67720;;;93,8107516
1,67770;;;102,6613894
1,67820;;;103,8821671
1,67870;;;91,06400193
1,67920;;;49,25236808
1,67970;;;-19,41637365
1,68020;;;-80,15006079
1,68070;;;-104,8708078
1,68120;;;-107,6175575
1,68170;;;-118,9097506
1,68220;;;-141,7993311
1,68270;;;-161,6369676
1,68320;;;-175,6759104
1,68370;;;-181,1694097
1,68420;;;-164,3837173
1,68470;;;-130,5071381
1,68520;;;-121,3513058
1,68570;;;-159,8058012
1,68620;;;-197,9551022
1,68670;;;-169,5720222
1,68720;;;-87,16953216
1,68770;;;-30,09817792
1,68820;;;-37,72803812
1,68870;;;-74,04617263
1,68920;;;-104,260419
1,68970;;;-145,7668584
1,69020;;;-207,7213232
1,69070;;;-233,052459
1,69120;;;-168,0460502
1,69170;;;-65,19553481
1,69220;;;-41,69556542
1,69270;;;-131,4227213
1,69320;;;-242,5134857
1,69370;;;-280,3575922
1,69420;;;-262,0459278
1,69470;;;-269,3705936
1,69520;;;-333,1562248
1,69570;;;-407,3184658
1,69620;;;-432,9547961
1,69670;;;-375,5782474
1,69720;;;-219,6239051
1,69770;;;14,15501119
1,69820;;;250,0702883
1,69870;;;403,277881
1,69920;;;460,6544297
1,69970;;;479,2712885
1,70020;;;502,1608691
1,70070;;;519,8621448
1,70120;;;513,1478678
1,70170;;;486,5959543
1,70220;;;440,8167932
1,70270;;;361,4662472
1,70320;;;257,7001485
1,70370;;;164,6158542
1,70420;;;80,07700326
1,70470;;;-52,07217528
1,70520;;;-258,3835949
1,70570;;;-472,0196803
1,70620;;;-603,55847
1,70670;;;-633,7727164
1,70720;;;-588,9091384
1,70770;;;-470,7989026
1,70820;;;-287,682258
1,70870;;;-129,5915548
1,70920;;;-117,0785841
1,70970;;;-255,3316508
1,71020;;;-406,708077
1,71070;;;-435,0911569
1,71120;;;-329,7990863
1,71170;;;-166,8252726
1,71220;;;-7,208597347
1,71270;;;136,8431631
1,71320;;;269,9079248
1,71370;;;393,2064656
1,71420;;;497,8881474
1,71470;;;557,7062513
1,71520;;;550,6867799
1,71569;;;496,6673698
1,71619;;;449,667431
1,71669;;;440,5115988
1,71719;;;450,5830142
1,71769;;;452,4141807
1,71819;;;441,7323764
1,71869;;;419,4531846
1,71919;;;370,9272738
1,71969;;;285,778034
1,72019;;;174,0768808
1,72069;;;50,77834012
1,72119;;;-73,74097823
1,72169;;;-182,084993
1,72219;;;-249,8381515
1,72269;;;-268,7602047
1,72319;;;-253,5004844
1,72369;;;-220,8446827
1,72419;;;-184,2213538
1,72469;;;-167,7408558
1,72519;;;-187,8836867
1,72569;;;-228,7797373
1,72619;;;-262,0459278
1,72669;;;-291,3445909
1,72719;;;-342,6172514
1,72769;;;-407,0132714
1,72819;;;-436,0067402
1,72869;;;-400,9093833
1,72919;;;-327,357531
1,72969;;;-255,3316508
1,73019;;;-196,1239357
1,73069;;;-144,2408864
1,73119;;;-97,85133643
1,73169;;;-45,96828713
1,73219;;;35,82381414
1,73269;;;160,0379381
1,73319;;;296,7650327
1,73369;;;393,51166
1,73419;;;416,706435
1,73469;;;372,4532458
1,73519;;;294,3234775
1,73569;;;210,3950153
1,73619;;;121,2782483
1,73669;;;9,271900669
1,73719;;;-127,7603884
1,73769;;;-268,4550103
1,73819;;;-387,1756349
1,73869;;;-466,5261809
1,73919;;;-488,8053727
1,73969;;;-450,0456829
1,74019;;;-391,4483566
1,74069;;;-371,3055257
1,74119;;;-385,6496629
1,74169;;;-358,4873606
1,74219;;;-242,2082913
1,74269;;;-83,20200486
1,74319;;;52,91470097
1,74369;;;179,8755746
1,74419;;;342,8493883
1,74469;;;504,29723
1,74519;;;558,9270289
1,74569;;;474,9985668
1,74619;;;346,8169156
1,74669;;;272,9598689
1,74719;;;234,2001791
1,74769;;;138,3691351
1,74819;;;-37,72803812
1,74869;;;-209,8576841
1,74919;;;-287,3770636
1,74969;;;-264,7926774
1,75019;;;-189,1044643
1,75069;;;-84,7279769
1,75119;;;47,42120163
1,75169;;;185,0638795
1,75219;;;290,966339
1,75269;;;373,9792179
1,75319;;;474,388178
1,75369;;;572,9659717
1,75419;;;578,7646654
1,75469;;;449,3622366
1,75519;;;268,3819528
1,75569;;;152,4080779
1,75619;;;118,836693
1,75669;;;105,1029447
1,75719;;;79,77180885
1,75769;;;57,49261709
1,75819;;;31,24589802
1,75869;;;-27,96181707
1,75919;;;-105,1760022
1,75969;;;-154,0071075
1,76019;;;-180,5590209
1,76069;;;-242,8186801
1,76119;;;-353,2990557
1,76169;;;-444,857378
1,76219;;;-455,5391823
1,76269;;;-386,2600517
1,76319;;;-266,0134551
1,76369;;;-121,3513058
1,76419;;;-1,409903601
1,76469;;;38,87575822
1,76519;;;16,29137205
1,76569;;;8,966706261
1,76619;;;32,46667565
1,76669;;;-12,39690228
1,76719;;;-194,5979637
1,76769;;;-407,9288547
1,76819;;;-457,9807375
1,76869;;;-291,6497853
1,76919;;;-62,14359073
1,76969;;;49,86275689
1,77019;;;22,70045461
1,77069;;;-34,98128845
1,77119;;;-39,25401016
1,77168;;;4,999178961
1,77218;;;70,92117102
1,77268;;;168,8885759
1,77318;;;308,0572258
1,77368;;;440,8167932
1,77418;;;495,4465921
1,77468;;;464,621957
1,77518;;;417,3168238
1,77568;;;416,0960461
1,77618;;;447,5310701
1,77668;;;452,7193751
1,77718;;;400,5311313
1,77768;;;301,3429488
1,77818;;;174,9924641
1,77868;;;35,51861973
1,77918;;;-92,96822591
1,77968;;;-182,6953818
1,78018;;;-231,8316814
1,78068;;;-265,0978719
1,78118;;;-295,0069238
1,78168;;;-306,2991169
1,78218;;;-289,2082301
1,78268;;;-260,2147613
1,78318;;;-230,6109038
1,78368;;;-174,4551328
1,78418;;;-67,94228448
1,78468;;;62,68092202
1,78518;;;166,4470206
1,78568;;;226,8755134
1,78618;;;265,0248143
1,78668;;;277,8429794
1,78718;;;229,9274574
1,78768;;;113,0379993
1,78818;;;-23,07870655
1,78868;;;-133,8642765
1,78918;;;-229,0849317
1,78968;;;-331,6302527
1,79018;;;-416,7794925
1,79068;;;-435,3963514
1,79118;;;-388,701607
1,79168;;;-327,6627254
1,79218;;;-286,7666748
1,79268;;;-254,721262
1,79318;;;-213,520017
1,79368;;;-163,1629397
1,79418;;;-102,1240581
1,79468;;;-22,46831773
1,79518;;;48,03159045
1,79568;;;41,01211907
1,79618;;;-74,35136704
1,79668;;;-226,6433765
1,79718;;;-297,4484791
1,79768;;;-235,7992087
1,79818;;;-90,22147624
1,79868;;;64,51208846
1,79918;;;186,5898515
1,79968;;;254,0378156
1,80018;;;249,7650939
1,80068;;;193,3041285
1,80118;;;154,8496331
1,80168;;;189,6417956
1,80218;;;272,9598689
1,80268;;;331,5571952
1,80318;;;324,8429182
1,80368;;;269,297536
1,80418;;;195,4404894
1,80468;;;119,1418874
1,80518;;;50,47314571
1,80568;;;-5,377430901
1,80618;;;-57,87086903
1,80668;;;-114,02664
1,80718;;;-155,8382739
1,80768;;;-164,0785229
1,80818;;;-148,8188025
1,80868;;;-128,3707772
1,80918;;;-88,08511539
1,80968;;;-14,83845754
1,81018;;;28,19395395
1,81068;;;-68,8578677
1,81118;;;-325,831559
1,81168;;;-600,5065259
1,81218;;;-713,7336512
1,81268;;;-636,2142716
1,81318;;;-503,4547043
1,81368;;;-448,2145165
1,81418;;;-457,9807375
1,81468;;;-425,0197415
1,81518;;;-308,4354777
1,81568;;;-191,5460196
1,81618;;;-161,9421621
1,81668;;;-178,1174657
1,81718;;;-107,0071687
1,81768;;;112,7328049
1,81818;;;402,6674922
1,81868;;;650,7905457
1,81918;;;831,465635
1,81968;;;981,6212836
1,82018;;;1094,848409
1,82068;;;1112,549685
1,82118;;;1009,699169
1,82168;;;838,4851064
1,82218;;;667,8814325
1,82268;;;519,2517559
1,82318;;;380,6934948
1,82368;;;257,3949541
1,82418;;;176,5184361
1,82468;;;148,1353562
1,82518;;;147,219773
1,82568;;;137,7587463
1,82618;;;106,0185279
1,82668;;;65,12247728
1,82718;;;37,65498059
1,82768;;;35,21342532
1,82817;;;55,66145064
1,82867;;;87,70686345
1,82917;;;115,4795545
1,82967;;;124,6353868
1,83017;;;111,2068328
1,83067;;;78,85622562
1,83117;;;30,63550921
1,83167;;;-28,26701148
1,83217;;;-84,7279769
1,83267;;;-120,4357226
1,83317;;;-129,2863604
1,83367;;;-118,9097506
1,83417;;;-98,15653084
1,83467;;;-72,825395
1,83517;;;-51,76698087
1,83567;;;-42,61114864
1,83617;;;-44,44231509
1,83667;;;-60,31242429
1,83717;;;-107,6175575
1,83767;;;-194,9031581
1,83817;;;-289,5134245
1,83867;;;-343,2276402
1,83917;;;-347,1951675
1,83967;;;-330,1042807
1,84017;;;-307,5198945
1,84067;;;-272,727732
1,84117;;;-240,6823192
1,84167;;;-251,0589291
1,84217;;;-315,7601435
1,84267;;;-394,8054951
1,84317;;;-443,331406
1,84367;;;-452,7924326
1,84417;;;-434,1755737
1,84467;;;-393,5847175
1,84517;;;-336,2081688
1,84567;;;-262,3511222
1,84617;;;-169,2668278
1,84667;;;-76,4877279
1,84717;;;-42,61114864
1,84767;;;-105,4811966
1,84817;;;-215,045989
1,84867;;;-279,1368146
1,84917;;;-277,0004538
1,84967;;;-267,8446215
1,85017;;;-289,2082301
1,85067;;;-307,5198945
1,85117;;;-290,4290077
1,85167;;;-261,1303446
1,85217;;;-251,3641235
1,85267;;;-242,8186801
1,85317;;;-194,5979637
1,85367;;;-96,6305588
1,85417;;;34,60303651
1,85467;;;190,2521844
1,85517;;;371,5376626
1,85567;;;564,7257227
1,85617;;;729,8358973
1,85667;;;807,9656656
1,85717;;;750,589117
1,85767;;;565,6413059
1,85817;;;336,4403057
1,85867;;;165,5314374
1,85917;;;94,72633483
1,85967;;;83,43414174
1,86017;;;70,31078221
1,86067;;;37,34978618
1,86117;;;14,4602056
1,86167;;;34,60303651
1,86217;;;96,86269568
1,86267;;;175,6028529
1,86317;;;248,2391219
1,86367;;;305,3104761
1,86417;;;336,7455001
1,86467;;;337,3558889
1,86517;;;333,6935561
1,86567;;;361,1610527
1,86617;;;392,2908823
1,86667;;;330,3364176
1,86717;;;122,8042203
1,86767;;;-148,5136081
1,86817;;;-345,3640011
1,86867;;;-411,5911876
1,86917;;;-392,3639399
1,86967;;;-337,1237521
1,87017;;;-260,8251501
1,87067;;;-184,2213538
1,87117;;;-139,3577759
1,87167;;;-124,0980555
1,87217;;;-110,974696
1,87267;;;-100,5980861
1,87317;;;-113,7214456
1,87367;;;-132,9486933
1,87417;;;-124,7084443
1,87467;;;-117,0785841
1,87517;;;-178,1174657
1,87567;;;-298,6692567
1,87617;;;-374,0522754
1,87667;;;-331,6302527
1,87717;;;-210,4680729
1,87767;;;-82,59161605
1,87817;;;37,65498059
1,87867;;;164,9210486
1,87917;;;271,1287025
1,87967;;;315,0766972
1,88017;;;305,920865
1,88067;;;294,3234775
1,88117;;;303,4793097
1,88167;;;306,2260594
1,88217;;;266,245592
1,88267;;;181,706741
1,88317;;;93,20036279
1,88367;;;55,66145064
1,88416;;;81,9081697
1,88466;;;111,2068328
1,88516;;;59,32378353
1,88566;;;-89,00069861
1,88616;;;-259,9095669
1,88666;;;-367,9483873
1,88716;;;-388,3964126
1,88766;;;-342,0068626
1,88816;;;-250,1433459
1,88866;;;-130,5071381
1,88916;;;-8,734569385
1,88966;;;92,58997397
1,89016;;;167,6677983
1,89066;;;206,427488
1,89116;;;193,6093229
1,89166;;;138,3691351
1,89216;;;85,875697
1,89266;;;75,19389273
1,89316;;;106,9341111
1,89366;;;157,2911884
1,89416;;;192,3885453
1,89466;;;167,9729927
1,89516;;;62,37572761
1,89566;;;-70,38383974
1,89616;;;-144,2408864
1,89666;;;-161,9421621
1,89716;;;-235,7992087
1,89766;;;-429,2924632
1,89816;;;-635,9090772
1,89866;;;-694,8115979
1,89916;;;-582,8052503
1,89966;;;-411,896382
1,90016;;;-258,3835949
1,90066;;;-97,24094762
1,90116;;;95,03152923
1,90166;;;275,4014242
1,90216;;;399,3103537
1,90266;;;480,7972606
1,90316;;;539,0893924
1,90366;;;554,3491128
1,90416;;;517,7257839
1,90466;;;472,862206
1,90516;;;449,3622366
1,90566;;;399,6155481
1,90616;;;255,5637877
1,90666;;;34,2978421
1,90716;;;-175,0655216
1,90766;;;-319,117282
1,90816;;;-417,0846869
1,90866;;;-487,5845951
1,90916;;;-496,1300385
1,90966;;;-405,182105
1,91016;;;-241,9030969
1,91066;;;-81,37083842
1,91116;;;24,83681546
1,91166;;;82,51855852
1,91216;;;125,8561644
1,91266;;;180,4859634
1,91316;;;248,2391219
1,91366;;;308,6676146
1,91416;;;338,881861
1,91466;;;340,1026386
1,91516;;;337,6610834
1,91566;;;346,5117212
1,91616;;;343,4597771
1,91666;;;296,4598383
1,91716;;;209,7846265
1,91766;;;120,3626651
1,91816;;;53,52508979
1,91866;;;4,693984553
1,91916;;;-33,45531641
1,91966;;;-52,07217528
1,92016;;;-45,66309272
1,92066;;;-37,1176493
1,92116;;;-58,17606343
1,92166;;;-112,8058624
1,92216;;;-171,0979943
1,92266;;;-201,3122406
1,92316;;;-202,2278239
1,92366;;;-198,565491
1,92416;;;-207,4161288
1,92466;;;-226,0329877
1,92516;;;-251,9745123
1,92566;;;-298,9744511
1,92616;;;-371,9159146
1,92666;;;-430,2080464
1,92716;;;-411,5911876
1,92766;;;-302,3315896
1,92816;;;-167,4356614
1,92866;;;-83,50719927
1,92916;;;-62,75397955
1,92966;;;-65,80592363
1,93016;;;-74,65656145
1,93066;;;-116,4681953
1,93116;;;-199,1758798
1,93166;;;-268,1498159
1,93216;;;-260,2147613
1,93266;;;-178,1174657
1,93316;;;-75,26695026
1,93366;;;33,07706447
1,93416;;;182,6223242
1,93466;;;369,7064962
1,93516;;;503,9920356
1,93566;;;497,2777586
1,93616;;;376,1155787
1,93666;;;250,3754828
1,93716;;;190,5573788
1,93766;;;184,7586851
1,93816;;;201,2391831
1,93866;;;229,3170686
1,93916;;;252,2066492
1,93966;;;236,9469288
1,94016;;;172,8561032
1,94065;;;77,63544799
1,94115;;;-43,52673186
1,94165;;;-200,091463
1,94215;;;-367,3379984
1,94265;;;-485,1430398
1,94315;;;-526,3442848
1,94365;;;-521,4611743
1,94415;;;-498,2663993
1,94465;;;-436,617129
1,94515;;;-313,0133939
1,94565;;;-148,5136081
1,94615;;;11,40826152
1,94665;;;147,219773
1,94715;;;270,2131193
1,94765;;;389,8493271
1,94815;;;495,7517865
1,94865;;;560,1478066
1,94915;;;561,978973
1,94965;;;518,6413671
1,95015;;;482,9336214
1,95065;;;487,5115375
1,95115;;;500,6348971
1,95165;;;470,1154563
1,95215;;;394,7324376
1,95265;;;322,0961686
1,95315;;;275,0962298
1,95365;;;223,8235693
1,95415;;;132,8756358
1,95465;;;3,168012515
1,95515;;;-136,0006374
1,95565;;;-255,0264564
1,95615;;;-331,9354471
1,95665;;;-363,9808599
1,95715;;;-366,7276096
1,95765;;;-348,7211396
1,95815;;;-291,9549797
1,95865;;;-186,3577147
1,95915;;;-66,41631244
1,95965;;;18,4277329
1,96015;;;59,62897794
1,96065;;;80,99258648
1,96115;;;82,82375293
1,96165;;;45,59003519
1,96215;;;-17,2800128
1,96265;;;-55,42931376
1,96315;;;-46,88387035
1,96365;;;-23,38390096
1,96415;;;-12,09170787
1,96465;;;4,083595738
1,96515;;;33,68745329
1,96565;;;22,09006579
1,96615;;;-89,30589302
1,96665;;;-265,7082607
1,96715;;;-394,1951063
1,96765;;;-408,2340491
1,96815;;;-347,8055563
1,96865;;;-285,2407028
1,96915;;;-233,3576535
1,96965;;;-161,9421621
1,97015;;;-70,68903415
1,97065;;;-2,325486824
1,97115;;;18,4277329
1,97165;;;16,59656645
1,97215;;;28,80434276
1,97265;;;65,42767169
1,97315;;;115,4795545
1,97365;;;166,1418262
1,97415;;;204,901516
1,97465;;;216,8040979
1,97515;;;196,0508782
1,97565;;;150,5769114
1,97615;;;97,16789009
1,97665;;;49,55756249
1,97715;;;16,59656645
1,97765;;;-0,7995147852
1,97815;;;-16,97481839
1,97865;;;-46,57867594
1,97915;;;-84,7279769
1,97965;;;-109,7539183
1,98015;;;-117,3837785
1,98065;;;-134,7798598
1,98115;;;-184,5265482
1,98165;;;-247,7017906
1,98215;;;-283,7147307
1,98265;;;-279,7472034
1,98315;;;-263,5718998
1,98365;;;-256,247234
1,98415;;;-237,9355696
1,98465;;;-179,0330489
1,98515;;;-89,00069861
1,98565;;;-16,05923517
1,98615;;;2,5576237
1,98665;;;-25,82545622
1,98715;;;-61,53320192
1,98765;;;-65,19553481
1,98815;;;-22,16312332
1,98865;;;48,64197926
1,98915;;;112,1224161
1,98965;;;145,0834121
1,99015;;;155,7652164
1,99065;;;164,0054654
1,99115;;;171,3301312
1,99165;;;161,2587157
1,99215;;;124,6353868
1,99265;;;68,17442136
1,99315;;;7,440734223
1,99365;;;-32,84492759
1,99415;;;-25,52026181
1,99465;;;26,3627875
1,99515;;;67,25883813
1,99565;;;31,55109243
1,99615;;;-81,67603283
1,99664;;;-207,4161288
1,99714;;;-287,3770636
1,99764;;;-313,6237827
1,99814;;;-302,0263952
1,99864;;;-258,6887893
1,99914;;;-189,4096587
1,99964;;;-103,6500302
2,00014;;;1,947234884
2,00064;;;132,8756358
2,00114;;;253,1222324
2,00164;;;308,3624202
2,00214;;;299,5117824
2,00264;;;286,9988117
2,00314;;;305,920865
2,00364;;;325,1481126
2,00414;;;319,3494189
2,00464;;;314,161114
2,00514;;;324,5377238
2,00564;;;307,446837
2,00614;;;223,5183749
2,00664;;;104,4925559
2,00714;;;9,271900669
2,00764;;;-45,96828713
2,00814;;;-71,29942296
2,00864;;;-61,83839633
2,00914;;;-25,2150674
2,00964;;;4,083595738
2,01014;;;18,4277329
2,01064;;;56,27183945
2,01114;;;119,1418874
2,01164;;;127,9925253
2,01214;;;23,61603783
2,01264;;;-139,6629703
2,01314;;;-262,961511
2,01364;;;-309,0458666
2,01414;;;-286,156286
2,01464;;;-191,851214
2,01514;;;-51,46178646
2,01564;;;46,81081282
2,01614;;;54,1354786
2,01664;;;51,08353452
2,01714;;;136,5379687
2,01764;;;265,6352031
2,01814;;;297,3754215
2,01864;;;195,7456838
2,01914;;;76,10947596
2,01964;;;54,74586742
2,02014;;;133,4860246
2,02064;;;237,862512
2,02114;;;296,4598383
2,02164;;;275,4014242
2,02214;;;190,2521844
2,02264;;;104,1873615
2,02314;;;69,39519899
2,02364;;;77,33025359
2,02414;;;94,42114042
2,02464;;;117,310721
2,02514;;;148,745745
2,02564;;;149,0509394
2,02614;;;75,80428155
2,02664;;;-47,18906476
2,02714;;;-157,0590515
2,02764;;;-226,0329877
2,02814;;;-265,0978719
2,02864;;;-274,8640929
2,02914;;;-249,5329571
2,02964;;;-214,4356002
2,03014;;;-202,5330183
2,03064;;;-202,5330183
2,03114;;;-180,8642153
2,03164;;;-141,1889423
2,03214;;;-114,9422233
2,03264;;;-100,5980861
2,03314;;;-67,94228448
2,03364;;;-15,14365195
2,03414;;;27,88875954
2,03464;;;45,28484078
2,03514;;;44,36925755
2,03564;;;31,24589802
2,03614;;;15,68098323
2,03664;;;19,95370494
2,03714;;;49,25236808
2,03764;;;62,98611642
2,03814;;;30,3303148
2,03864;;;-15,14365195
2,03914;;;-24,60467859
2,03964;;;-11,78651346
2,04014;;;-26,74103944
2,04064;;;-63,05917396
2,04114;;;-74,35136704
2,04164;;;-71,60461737
2,04214;;;-124,4032499
2,04264;;;-250,1433459
2,04314;;;-371,3055257
2,04364;;;-413,422354
2,04414;;;-387,7860238
2,04464;;;-343,5328346
2,04514;;;-295,922507
2,04564;;;-233,3576535
2,04614;;;-155,8382739
2,04664;;;-71,60461737
2,04714;;;14,15501119
2,04764;;;91,36919634
2,04814;;;145,0834121
2,04864;;;182,9275187
2,04914;;;229,0118742
2,04964;;;282,4208956
2,05014;;;316,2974748
2,05064;;;321,7909742
2,05114;;;312,3299475
2,05164;;;281,5053123
2,05214;;;204,2911272
2,05264;;;97,7782789
2,05313;;;24,53162105
2,05363;;;13,84981678
2,05413;;;26,66798191
2,05463;;;19,64851053
2,05513;;;-4,461847678
2,05563;;;-44,44231509
2,05613;;;-133,2538877
2,05663;;;-277,916037
2,05713;;;-409,7600211
2,05763;;;-449,1300997
2,05813;;;-398,1626336
2,05863;;;-314,8445603
2,05913;;;-226,9485709
2,05963;;;-123,4876667
2,06013;;;-13,00729109
2,06063;;;72,75233747
2,06113;;;130,7392749
2,06163;;;180,7911578
2,06213;;;212,8365706
2,06263;;;193,6093229
2,06313;;;127,9925253
2,06363;;;77,02505918
2,06413;;;88,62244667
2,06463;;;147,8301618
2,06513;;;206,1222936
2,06563;;;225,9599301
2,06613;;;191,4729621
2,06663;;;111,5120272
2,06713;;;22,09006579
2,06763;;;-40,16959338
2,06813;;;-75,87733908
2,06863;;;-109,1435295
2,06913;;;-139,3577759
2,06963;;;-142,7149144
2,07013;;;-112,8058624
2,07063;;;-65,80592363
2,07113;;;-14,22806872
2,07163;;;26,97317632
2,07213;;;21,47967698
2,07263;;;-39,25401016
2,07313;;;-87,16953216
2,07363;;;-55,42931376
2,07413;;;2,5576237
2,07463;;;-30,09817792
2,07513;;;-159,8058012
2,07563;;;-258,0784005
2,07613;;;-241,2927081
2,07663;;;-160,1109956
2,07713;;;-85,64356013
2,07763;;;-14,22806872
2,07813;;;63,59650524
2,07863;;;113,0379993
2,07913;;;136,2327743
2,07963;;;198,187239
2,08013;;;293,1026998
2,08063;;;298,2910048
2,08113;;;147,5249674
2,08163;;;-39,25401016
2,08213;;;-106,3967798
2,08263;;;-54,81892495
2,08313;;;14,15501119
2,08363;;;73,36272629
2,08413;;;158,8171604
2,08463;;;247,0183443
2,08513;;;267,4663696
2,08563;;;221,9924028
2,08613;;;187,5054348
2,08663;;;205,5119048
2,08713;;;252,2066492
2,08763;;;302,5637265
2,08813;;;346,5117212
2,08863;;;356,2779422
2,08913;;;304,0896985
2,08963;;;205,2067104
2,09013;;;93,20036279
2,09063;;;-25,52026181
2,09113;;;-148,5136081
2,09163;;;-239,1563472
2,09213;;;-270,8965656
2,09263;;;-273,3381209
2,09313;;;-278,5264258
2,09363;;;-253,5004844
2,09413;;;-150,3447746
2,09463;;;-0,1891259698
2,09513;;;111,5120272
2,09563;;;154,2392443
2,09613;;;174,6872696
2,09663;;;217,7196811
2,09713;;;271,1287025
2,09763;;;299,5117824
2,09813;;;287,3040061
2,09863;;;242,7456226
2,09913;;;181,706741
2,09963;;;122,1938315
2,10013;;;80,99258648
2,10063;;;68,17442136
2,10113;;;80,38219766
2,10163;;;97,47308449
2,10213;;;84,34972496
2,10263;;;24,22642665
2,10313;;;-58,78645225
2,10363;;;-126,5396108
2,10413;;;-173,2343551
2,10463;;;-221,760266
2,10513;;;-269,3705936
2,10563;;;-283,4095363
2,10613;;;-254,4160676
2,10663;;;-220,8446827
2,10713;;;-217,4875443
2,10763;;;-230,000515
2,10813;;;-224,5070156
2,10863;;;-196,4291301
2,10912;;;-166,8252726
2,10962;;;-151,8707466
2,11012;;;-151,8707466
2,11062;;;-162,8577453
2,11112;;;-172,6239663
2,11162;;;-170,7927999
2,11212;;;-171,0979943
2,11262;;;-204,6693791
2,11312;;;-267,2342327
2,11362;;;-301,110812
2,11412;;;-260,8251501
2,11462;;;-173,5395495
2,11512;;;-104,5656134
2,11562;;;-77,70850553
2,11612;;;-64,58514599
2,11662;;;-42,00075982
2,11712;;;-16,36442958
2,11762;;;5,609567777
2,11812;;;32,77187006
2,11862;;;61,46014439
2,11912;;;76,41467036
2,11962;;;84,34972496
2,12012;;;108,7652776
2,12062;;;142,031468
2,12112;;;137,7587463
2,12162;;;77,33025359
2,12212;;;6,525151
2,12262;;;-24,29948418
2,12312;;;-25,2150674
2,12362;;;-38,03323252
2,12412;;;-65,19553481
2,12462;;;-67,94228448
2,12512;;;-30,70856674
2,12562;;;18,73292731
2,12612;;;53,83028419
2,12662;;;78,85622562
2,12712;;;100,5250286
2,12762;;;105,4081391
2,12812;;;86,79128023
2,12862;;;70,0055878
2,12912;;;82,51855852
2,12962;;;110,2912496
2,13012;;;104,4925559
2,13062;;;41,62250789
2,13112;;;-45,35789831
2,13162;;;-104,5656134
2,13212;;;-117,6889729
2,13262;;;-103,3448358
2,13312;;;-80,7604496
2,13362;;;-50,85139765
2,13412;;;-9,955347016
2,13462;;;34,2978421
2,13512;;;68,78481017
2,13562;;;80,38219766
2,13612;;;52,30431215
2,13662;;;-30,40337233
2,13712;;;-154,3123019
2,13762;;;-262,961511
2,13812;;;-292,5653685
2,13862;;;-235,4940143
2,13912;;;-150,649969
2,13962;;;-98,15653084
2,14012;;;-68,8578677
2,14062;;;-8,734569385
2,14112;;;93,20036279
2,14162;;;184,7586851
2,14212;;;227,4859022
2,14262;;;258,6157318
2,14312;;;322,401363
2,14362;;;373,3688291
2,14412;;;324,8429182
2,14462;;;185,6742683
2,14512;;;72,75233747
2,14562;;;58,71339472
2,14612;;;78,24583681
2,14662;;;30,02512039
2,14712;;;-78,31889434
2,14762;;;-150,649969
2,14812;;;-128,981166
2,14862;;;-46,27348153
2,14912;;;36,73939736
2,14962;;;93,50555719
2,15012;;;123,4146091
2,15062;;;139,2847183
2,15112;;;161,8691045
2,15162;;;204,5963216
2,15212;;;259,2261206
2,15262;;;305,3104761
2,15312;;;329,7260288
2,15362;;;322,401363
2,15412;;;272,3494801
2,15462;;;190,8625733
2,15512;;;117,0055266
2,15562;;;75,80428155
2,15612;;;43,14847992
2,15662;;;-19,11117925
2,15712;;;-110,3643072
2,15762;;;-191,5460196
2,15812;;;-240,3771248
2,15862;;;-273,3381209
2,15912;;;-316,9809212
2,15962;;;-374,6626642
2,16012;;;-418,9158533
2,16062;;;-414,6431316
2,16112;;;-354,5198333
2,16162;;;-273,3381209
2,16212;;;-214,1304058
2,16262;;;-179,9486321
2,16312;;;-134,4746654
2,16362;;;-52,37736969
2,16412;;;51,38872893
2,16462;;;144,1678289
2,16512;;;208,2586545
2,16561;;;246,4079555
2,16611;;;274,7910354
2,16661;;;307,7520314
2,16711;;;333,0831672
2,16761;;;307,7520314
2,16811;;;211,615793
2,16861;;;89,53802989
2,16911;;;4,388790146
2,16961;;;-42,61114864
2,17011;;;-100,5980861
2,17061;;;-180,5590209
2,17111;;;-242,5134857
2,17161;;;-268,7602047
2,17211;;;-286,156286
2,17261;;;-297,1432847
2,17311;;;-260,5199557
2,17361;;;-172,6239663
2,17411;;;-96,02016999
2,17461;;;-68,24747889
2,17511;;;-48,40984239
2,17561;;;-6,598208532
2,17611;;;-6,293014124
2,17661;;;-116,1630009
2,17711;;;-286,156286
2,17761;;;-389,0068014
2,17811;;;-365,2016376
2,17861;;;-262,6563166
2,17911;;;-140,5785535
2,17961;;;-12,39690228
2,18011;;;118,2263042
2,18061;;;229,3170686
2,18111;;;308,0572258
2,18161;;;364,5181912
2,18211;;;404,8038531
2,18261;;;424,6414896
2,18311;;;432,2713497
2,18361;;;444,1739316
2,18411;;;460,3492353
2,18461;;;467,0635122
2,18511;;;458,8232632
2,18561;;;433,4921274
2,18611;;;374,8948011
2,18661;;;275,7066186
2,18711;;;165,5314374
2,18761;;;83,43414174
2,18811;;;28,49914835
2,18861;;;-25,52026181
2,18911;;;-76,18253349
2,18961;;;-94,79939236
2,19011;;;-81,06564401
2,19061;;;-69,46825652
2,19111;;;-76,18253349
2,19161;;;-80,15006079
2,19211;;;-68,55267329
2,19261;;;-65,80592363
2,19311;;;-100,9032805
2,19361;;;-169,2668278
2,19411;;;-240,6823192
2,19461;;;-287,682258
2,19511;;;-294,7017294
2,19561;;;-262,6563166
2,19611;;;-211,9940449
2,19661;;;-166,8252726
2,19711;;;-130,5071381
2,19761;;;-92,6630315
2,19811;;;-58,17606343
2,19861;;;-47,18906476
2,19911;;;-60,9228131
2,19961;;;-74,35136704
2,20011;;;-71,29942296
2,20061;;;-63,05917396
2,20111;;;-62,44878514
2,20161;;;-60,00722988
2,20211;;;-45,0527039
2,20261;;;-30,40337233
2,20311;;;-37,1176493
2,20361;;;-59,39684106
2,20411;;;-67,94228448
2,20461;;;-47,18906476
2,20511;;;-17,2800128
2,20561;;;-11,17612465
2,20611;;;-34,98128845
2,20661;;;-59,09164666
2,20711;;;-50,24100883
2,20761;;;-13,00729109
2,20811;;;14,4602056
2,20861;;;5,914762184
2,20911;;;-24,29948418
2,20961;;;-43,22153746
2,21011;;;-38,03323252
2,21061;;;-26,43584503
2,21111;;;-25,82545622
2,21161;;;-29,79298352
2,21211;;;-19,41637365
2,21261;;;5,304373369
2,21311;;;12,32384475
2,21361;;;-36,81245489
2,21411;;;-134,7798598
2,21461;;;-217,7927387
2,21511;;;-229,6953206
2,21561;;;-186,6629091
2,21611;;;-146,0720529
2,21661;;;-116,4681953
2,21711;;;-51,46178646
2,21761;;;49,86275689
2,21811;;;94,42114042
2,21861;;;-1,104709193
2,21911;;;-190,6304364
2,21961;;;-337,1237521
2,22011;;;-362,1496935
2,22061;;;-300,8056176
2,22111;;;-219,3187107
2,22160;;;-132,6434989
2,22210;;;-21,85792892
2,22260;;;112,4276105
2,22310;;;242,1352337
2,22360;;;339,1870554
2,22410;;;402,0571034
2,22460;;;460,0440408
2,22510;;;545,498475
2,22560;;;654,4528785
2,22610;;;737,4657574
2,22660;;;750,589117
2,22710;;;699,3164565
2,22760;;;614,1672167
2,22810;;;501,5504803
2,22860;;;350,1740541
2,22910;;;176,2132417
2,22960;;;23,31084342
2,23010;;;-81,67603283
2,23060;;;-143,935692
2,23110;;;-170,4876055
2,23160;;;-160,41619
2,23210;;;-130,5071381
2,23260;;;-112,8058624
2,23310;;;-117,3837785
2,23360;;;-118,9097506
2,23410;;;-99,98769729
2,23460;;;-78,31889434
2,23510;;;-78,01369993
2,23560;;;-95,40978117
2,23610;;;-108,5331407
2,23660;;;-108,2279463
2,23710;;;-98,76691966
2,23760;;;-84,11758809
2,23810;;;-68,24747889
2,23860;;;-58,78645225
2,23910;;;-57,26048021
2,23960;;;-56,03970258
2,24010;;;-63,36436836
2,24060;;;-107,6175575
2,24110;;;-194,9031581
2,24160;;;-278,2212314
2,24210;;;-300,1952287
2,24260;;;-259,9095669
2,24310;;;-204,0589903
2,24360;;;-159,1954124
2,24410;;;-109,7539183
2,24460;;;-46,57867594
2,24510;;;11,71345593
2,24560;;;57,49261709
2,24610;;;112,4276105
2,24660;;;182,3171298
2,24710;;;229,3170686
2,24760;;;218,0248755
2,24810;;;171,3301312
2,24860;;;138,6743295
2,24910;;;131,3496637
2,24960;;;116,0899434
2,25010;;;68,47961576
2,25060;;;0,1160684379
2,25110;;;-60,31242429
2,25160;;;-91,13705946
2,25210;;;-91,44225387
2,25260;;;-82,59161605
2,25310;;;-85,94875453
2,25360;;;-94,79939236
2,25410;;;-83,20200486
2,25460;;;-51,46178646
2,25510;;;-31,92934437
2,25560;;;-37,72803812
2,25610;;;-43,83192627
2,25660;;;-33,45531641
2,25710;;;-25,82545622
2,25760;;;-37,1176493
2,25810;;;-51,15659206
2,25860;;;-60,31242429
2,25910;;;-85,64356013
2,25960;;;-123,4876667
2,26010;;;-127,455194
2,26060;;;-85,94875453
2,26110;;;-71,90981178
2,26160;;;-147,2928305
2,26210;;;-257,7732061
2,26260;;;-293,4809518
2,26310;;;-232,7472646
2,26360;;;-148,2084137
2,26410;;;-87,47472657
2,26460;;;-27,35142826
2,26510;;;57,18742268
2,26560;;;144,1678289
2,26610;;;207,6482657
2,26660;;;253,1222324
2,26710;;;286,0832285
2,26760;;;289,4403669
2,26810;;;254,6482045
2,26860;;;204,2911272
2,26910;;;163,3950766
2,26960;;;130,7392749
2,27010;;;90,14841871
2,27060;;;34,60303651
2,27110;;;-26,13065062
2,27160;;;-72,21500619
2,27210;;;-81,67603283
2,27260;;;-54,51373054
2,27310;;;-20,02676247
2,27360;;;-8,12418057
2,27410;;;-14,53326313
2,27460;;;-17,2800128
2,27510;;;-17,89040162
2,27560;;;-42,30595423
2,27610;;;-103,3448358
2,27660;;;-184,2213538
2,27710;;;-255,3316508
2,27760;;;-289,8186189
2,27809;;;-269,3705936
2,27859;;;-198,565491
2,27909;;;-110,3643072
2,27959;;;-35,28648286
2,28009;;;23,31084342
2,28059;;;73,36272629
2,28109;;;101,7458062
2,28159;;;89,53802989
2,28209;;;54,1354786
2,28259;;;40,40173025
2,28309;;;68,17442136
2,28359;;;107,2393055
2,28409;;;119,7522763
2,28459;;;105,7133335
2,28509;;;97,16789009
2,28559;;;113,9535825
2,28609;;;131,0444693
2,28659;;;92,28477956
2,28709;;;-36,81245489
2,28759;;;-215,6563778
2,28809;;;-340,786085
2,28859;;;-340,786085
2,28909;;;-242,8186801
2,28959;;;-130,5071381
2,29009;;;-43,52673186
2,29059;;;43,45367433
2,29109;;;150,5769114
2,29159;;;249,7650939
2,29209;;;311,4143643
2,29259;;;352,3104149
2,29309;;;402,9726866
2,29359;;;459,1284576
2,29409;;;490,868676
2,29459;;;489,9530928
2,29509;;;475,6089556
2,29559;;;461,5700129
2,29609;;;437,7648491
2,29659;;;381,9142725
2,29709;;;277,537785
2,29759;;;132,5704414
2,29809;;;-11,17612465
2,29859;;;-103,0396414
2,29909;;;-130,5071381
2,29959;;;-127,1499996
2,30009;;;-126,8448052
2,30059;;;-126,5396108
2,30109;;;-114,02664
2,30159;;;-100,9032805
2,30209;;;-101,2084749
2,30259;;;-99,07211407
2,30309;;;-75,26695026
2,30359;;;-46,27348153
2,30409;;;-44,13712068
2,30459;;;-67,02670126
2,30509;;;-86,25394894
2,30559;;;-93,57861473
2,30609;;;-107,0071687
2,30659;;;-135,695443
2,30709;;;-165,9096894
2,30759;;;-186,0525203
2,30809;;;-196,4291301
2,30859;;;-196,1239357
2,30909;;;-184,8317426
2,30959;;;-173,5395495
2,31009;;;-173,844744
2,31059;;;-180,2538265
2,31109;;;-183,9161594
2,31159;;;-190,0200476
2,31209;;;-199,1758798
2,31259;;;-185,136937
2,31309;;;-130,5071381
2,31359;;;-70,07864533
2,31409;;;-52,07217528
2,31459;;;-61,53320192
2,31509;;;-40,16959338
2,31559;;;15,98617764
2,31609;;;40,40173025
2,31659;;;-2,935875639
2,31709;;;-61,83839633
2,31759;;;-68,55267329
2,31809;;;-24,29948418
2,31859;;;31,85628684
2,31909;;;88,31725226
2,31959;;;140,505496
2,32009;;;153,3236611
2,32059;;;99,60944535
2,32109;;;21,47967698
2,32159;;;-15,44884635
2,32209;;;-10,87093024
2,32259;;;-19,11117925
2,32309;;;-59,09164666
2,32359;;;-95,10458676
2,32409;;;-100,9032805
2,32459;;;-85,94875453
2,32509;;;-53,59814732
2,32559;;;1,336846069
2,32609;;;45,59003519
2,32659;;;18,12253849
2,32709;;;-78,92928316
2,32759;;;-163,1629397
2,32809;;;-171,7083831
2,32859;;;-129,5915548
2,32909;;;-88,6955042
2,32959;;;-51,15659206
2,33009;;;7,440734223
2,33059;;;84,04453056
2,33109;;;158,8171604
2,33159;;;225,0443469
2,33209;;;273,5702577
2,33259;;;274,485841
2,33309;;;223,2131805
2,33359;;;164,9210486
2,33408;;;137,7587463
2,33458;;;119,4470818
2,33508;;;77,63544799
2,33558;;;32,16148125
2,33608;;;15,07059442
2,33658;;;-3,546264455
2,33708;;;-78,31889434
2,33758;;;-190,9356308
2,33808;;;-261,7407334
2,33858;;;-255,9420396
2,33908;;;-215,045989
2,33958;;;-175,9811048
2,34008;;;-117,3837785
2,34058;;;-16,36442958
2,34108;;;93,50555719
2,34158;;;158,8171604
2,34208;;;162,1742989
2,34258;;;124,3301924
2,34308;;;73,66792069
2,34358;;;36,43420295
2,34408;;;34,90823092
2,34458;;;70,0055878
2,34508;;;114,5639713
2,34558;;;142,6418568
2,34608;;;149,3561338
2,34658;;;136,2327743
2,34708;;;101,7458062
2,34758;;;56,88222827
2,34808;;;28,19395395
2,34858;;;23,61603783
2,34908;;;18,12253849
2,34958;;;-10,26054142
2,35008;;;-47,79945357
2,35058;;;-69,16306211
2,35108;;;-75,87733908
2,35158;;;-86,25394894
2,35208;;;-103,3448358
2,35258;;;-119,214945
2,35308;;;-134,4746654
2,35358;;;-146,9876361
2,35408;;;-128,981166
2,35458;;;-56,9552858
2,35508;;;45,28484078
2,35558;;;124,3301924
2,35608;;;160,6483269
2,35658;;;180,4859634
2,35708;;;201,8495719
2,35758;;;208,5638489
2,35808;;;187,8106292
2,35858;;;148,745745
2,35908;;;92,58997397
2,35958;;;-0,4943203775
2,36008;;;-128,0655828
2,36058;;;-235,7992087
2,36108;;;-273,9485097
2,36158;;;-255,9420396
2,36208;;;-226,3381821
2,36258;;;-199,1758798
2,36308;;;-157,9746348
2,36358;;;-107,6175575
2,36408;;;-77,09811671
2,36458;;;-71,90981178
2,36508;;;-62,44878514
2,36558;;;-26,74103944
2,36608;;;25,14200987
2,36658;;;77,02505918
2,36708;;;124,024998
2,36758;;;160,0379381
2,36808;;;172,2457144
2,36858;;;161,8691045
2,36908;;;145,0834121
2,36958;;;121,8886371
2,37008;;;67,86922695
2,37058;;;-24,60467859
2,37108;;;-119,214945
2,37158;;;-164,6889117
2,37208;;;-149,1239969
2,37258;;;-112,8058624
2,37308;;;-114,02664
2,37358;;;-183,9161594
2,37408;;;-296,8380903
2,37458;;;-380,7665524
2,37508;;;-375,5782474
2,37558;;;-287,9874524
2,37608;;;-176,5914936
2,37658;;;-76,7929223
2,37708;;;25,44720428
2,37758;;;146,6093841
2,37808;;;261,3624814
2,37858;;;335,8299169
2,37908;;;370,316885
2,37958;;;381,6090781
2,38008;;;365,12858
2,38058;;;313,8559196
2,38108;;;248,5443163
2,38158;;;195,4404894
2,38208;;;143,5574401
2,38258;;;61,46014439
2,38308;;;-49,32542561
2,38358;;;-155,2278851
2,38408;;;-231,2212926
2,38458;;;-273,6433153
2,38508;;;-275,4744817
2,38558;;;-226,9485709
2,38608;;;-143,935692
2,38658;;;-60,61761869
2,38708;;;9,271900669
2,38758;;;79,77180885
2,38808;;;157,2911884
2,38858;;;228,4014854
2,38908;;;283,0312844
2,38958;;;323,0117518
2,39008;;;345,596138
2,39057;;;339,7974442
2,39107;;;303,7845041
2,39157;;;246,4079555
2,39207;;;172,5509088
2,39257;;;84,34972496
2,39307;;;-0,7995147852
2,39357;;;-58,78645225
2,39407;;;-85,64356013
2,39457;;;-102,4292525
2,39507;;;-126,5396108
2,39557;;;-152,4811354
2,39607;;;-164,0785229
2,39657;;;-156,7538571
2,39707;;;-142,1045256
2,39757;;;-135,695443
2,39807;;;-138,4421927
2,39857;;;-134,169471
2,39907;;;-107,9227519
2,39957;;;-64,8903404
2,40007;;;-16,97481839
2,40057;;;40,09653585
2,40107;;;110,2912496
2,40157;;;160,6483269
2,40207;;;139,5899128
2,40257;;;48,03159045
2,40307;;;-42,91634305
2,40357;;;-73,43578382
2,40407;;;-56,9552858
2,40457;;;-47,18906476
2,40507;;;-59,39684106
2,40557;;;-67,02670126
2,40607;;;-53,90334173
2,40657;;;-32,53973319
2,40707;;;-16,97481839
2,40757;;;-3,851458862
2,40807;;;13,23942797
2,40857;;;32,46667565
2,40907;;;54,1354786
2,40957;;;85,26530819
2,41007;;;135,0119966
2,41057;;;199,1028223
2,41107;;;249,1547051
2,41157;;;240,6092617
2,41207;;;144,7782177
2,41257;;;-13,3124855
2,41307;;;-166,8252726
2,41357;;;-254,721262
2,41407;;;-264,487483
2,41457;;;-220,2342939
2,41507;;;-150,649969
2,41557;;;-76,7929223
2,41607;;;-13,00729109
2,41657;;;32,77187006
2,41707;;;59,62897794
2,41757;;;65,12247728
2,41807;;;50,47314571
2,41857;;;33,99264769
2,41907;;;37,96017499
2,41957;;;60,54456116
2,42007;;;72,14194866
2,42057;;;50,1679513
2,42107;;;8,356317446
2,42157;;;-25,52026181
2,42207;;;-41,69556542
2,42257;;;-49,0202312
2,42307;;;-52,37736969
2,42357;;;-51,76698087
2,42407;;;-49,32542561
2,42457;;;-47,18906476
2,42507;;;-39,25401016
2,42557;;;-21,2475401
2,42607;;;-2,935875639
2,42657;;;1,336846069
2,42707;;;-9,650152609
2,42757;;;-28,87740029
2,42807;;;-46,88387035
2,42857;;;-55,73450817
2,42907;;;-51,76698087
2,42957;;;-43,22153746
2,43007;;;-46,57867594
2,43057;;;-59,39684106
2,43107;;;-62,44878514
2,43157;;;-55,12411936
2,43207;;;-64,27995159
2,43257;;;-97,54614203
2,43307;;;-122,2668891
2,43357;;;-120,740917
2,43407;;;-131,1175269
2,43457;;;-190,6304364
2,43507;;;-267,2342327
2,43557;;;-298,0588679
2,43607;;;-279,442009
2,43657;;;-262,961511
2,43707;;;-269,0653992
2,43757;;;-256,8576228
2,43807;;;-188,1888811
2,43857;;;-74,65656145
2,43907;;;50,1679513
2,43957;;;162,7846877
2,44007;;;250,0702883
2,44057;;;310,8039755
2,44107;;;359,9402751
2,44157;;;406,0246307
2,44207;;;429,8297945
2,44257;;;406,3298251
2,44307;;;346,8169156
2,44357;;;282,4208956
2,44407;;;220,7716252
2,44457;;;151,4924947
2,44507;;;80,99258648
2,44557;;;25,14200987
2,44607;;;-19,72156806
2,44656;;;-63,66956277
2,44706;;;-92,96822591
2,44756;;;-98,76691966
2,44806;;;-115,5526121
2,44856;;;-178,7278545
2,44906;;;-255,6368452
2,44956;;;-275,1692873
2,45006;;;-220,2342939
2,45056;;;-144,2408864
2,45106;;;-87,16953216
2,45156;;;-32,53973319
2,45206;;;41,62250789
2,45256;;;122,4990259
2,45306;;;185,3690739
2,45356;;;224,7391525
2,45406;;;237,862512
2,45456;;;209,7846265
2,45506;;;139,2847183
2,45556;;;55,96664505
2,45606;;;-5,682625308
2,45656;;;-35,89687167
2,45706;;;-45,96828713
2,45756;;;-50,85139765
2,45806;;;-58,78645225
2,45856;;;-63,66956277
2,45906;;;-49,63062002
2,45956;;;-10,56573583
2,46006;;;31,55109243
2,46056;;;46,50561841
2,46106;;;26,3627875
2,46156;;;-8,734569385
2,46206;;;-41,0851766
2,46256;;;-65,80592363
2,46306;;;-82,28642164
2,46356;;;-88,08511539
2,46406;;;-84,7279769
2,46456;;;-75,87733908
2,46506;;;-61,53320192
2,46556;;;-38,03323252
2,46606;;;-7,208597347
2,46656;;;26,97317632
2,46706;;;60,54456116
2,46756;;;91,97958516
2,46806;;;128,6029141
2,46856;;;185,9794627
2,46906;;;264,7196199
2,46956;;;330,3364176
2,47006;;;338,2714722
2,47056;;;282,1157012
2,47106;;;198,4924334
2,47156;;;121,5834427
2,47206;;;56,88222827
2,47256;;;9,882289484
2,47306;;;3,168012515
2,47356;;;41,62250789
2,47406;;;88,31725226
2,47456;;;106,6289167
2,47506;;;97,7782789
2,47556;;;71,53155984
2,47606;;;9,271900669
2,47656;;;-103,6500302
2,47706;;;-226,0329877
2,47756;;;-287,9874524
2,47806;;;-270,5913712
2,47856;;;-217,1823498
2,47906;;;-164,9941061
2,47956;;;-108,8383351
2,48006;;;-42,30595423
2,48056;;;2,252429292
2,48106;;;-5,987819716
2,48156;;;-50,54620324
2,48206;;;-81,98122723
2,48256;;;-74,65656145
2,48306;;;-42,30595423
2,48356;;;-10,87093024
2,48406;;;4,388790146
2,48456;;;-0,4943203775
2,48506;;;-23,99428977
2,48556;;;-53,59814732
2,48606;;;-75,57214467
2,48656;;;-79,84486638
2,48706;;;-55,42931376
2,48756;;;7,135539815
2,48806;;;95,64191805
2,48856;;;167,6677983
2,48906;;;185,0638795
2,48956;;;150,8821058
2,49006;;;95,03152923
2,49056;;;34,2978421
2,49106;;;-29,79298352
2,49156;;;-82,59161605
2,49206;;;-100,2928917
2,49256;;;-86,86433776
2,49306;;;-73,74097823
2,49356;;;-74,35136704
2,49406;;;-71,90981178
2,49456;;;-52,9877585
2,49506;;;-32,84492759
2,49556;;;-27,04623385
2,49606;;;-29,79298352
2,49656;;;-30,09817792
2,49706;;;-27,96181707
2,49756;;;-22,77351214
2,49806;;;-11,78651346
2,49856;;;-9,039763793
2,49906;;;-36,20206608
2,49956;;;-86,55914335
2,50006;;;-128,0655828
2,50056;;;-163,1629397
2,50106;;;-237,9355696
2,50156;;;-366,1172208
2,50206;;;-480,8703181
2,50256;;;-500,0975658
2,50305;;;-420,136631
2,50355;;;-298,6692567
2,50405;;;-167,7408558
2,50455;;;-14,22806872
2,50505;;;159,7327437
2,50555;;;314,7715028
2,50605;;;416,4012405
2,50655;;;474,388178
2,50705;;;510,0959237
2,50755;;;522,9140888
2,50805;;;504,9076188
2,50855;;;467,0635122
2,50905;;;423,7259063
2,50955;;;367,5701353
2,51005;;;277,8429794
2,51055;;;157,9015772
2,51105;;;40,09653585
2,51155;;;-47,79945357
2,51205;;;-106,0915854
2,51255;;;-146,9876361
2,51305;;;-173,2343551
2,51355;;;-180,2538265
2,51405;;;-170,4876055
2,51455;;;-154,6174963
2,51505;;;-140,5785535
2,51555;;;-132,3383045
2,51605;;;-128,6759716
2,51655;;;-125,3188331
2,51705;;;-116,1630009
2,51755;;;-103,3448358
2,51805;;;-94,49419795
2,51855;;;-84,11758809
2,51905;;;-56,34489699
2,51955;;;-16,05923517
2,52005;;;2,5576237
2,52055;;;-21,85792892
2,52105;;;-62,75397955
2,52155;;;-77,40331112
2,52205;;;-64,58514599
2,52255;;;-55,42931376
2,52305;;;-55,42931376
2,52355;;;-34,06570522
2,52405;;;22,3952602
2,52455;;;82,82375293
2,52505;;;106,3237223
2,52555;;;87,40166904
2,52605;;;43,45367433
2,52655;;;-7,513791755
2,52705;;;-49,0202312
2,52755;;;-57,26048021
2,52805;;;-22,77351214
2,52855;;;31,55109243
2,52905;;;70,0055878
2,52955;;;77,02505918
2,53005;;;63,90169965
2,53055;;;51,99911775
2,53105;;;57,79781149
2,53155;;;87,70686345
2,53205;;;129,2133029
2,53255;;;156,0704108
2,53305;;;154,5444387
2,53355;;;135,0119966
2,53405;;;115,4795545
2,53455;;;92,89516838
2,53505;;;51,99911775
2,53555;;;-10,26054142
2,53605;;;-74,96175586
2,53655;;;-117,0785841
2,53705;;;-124,4032499
2,53755;;;-99,37730847
2,53805;;;-56,03970258
2,53855;;;-16,05923517
2,53905;;;2,252429292
2,53955;;;-0,4943203775
2,54005;;;-10,56573583
2,54055;;;-15,44884635
2,54105;;;-14,83845754
2,54155;;;-15,14365195
2,54205;;;-17,89040162
2,54255;;;-20,33195688
2,54305;;;-18,50079043
2,54355;;;-13,3124855
2,54405;;;-11,17612465
2,54455;;;-21,2475401
2,54505;;;-47,49425916
2,54555;;;-82,89681046
2,54605;;;-113,4162512
2,54655;;;-132,0331101
2,54705;;;-141,4941367
2,54755;;;-150,3447746
2,54805;;;-164,6889117
2,54855;;;-186,3577147
2,54905;;;-207,4161288
2,54955;;;-212,9096281
2,55005;;;-190,0200476
2,55055;;;-143,935692
2,55105;;;-92,3578371
2,55155;;;-46,27348153
2,55205;;;-0,4943203775
2,55255;;;48,64197926
2,55305;;;92,89516838
2,55355;;;122,4990259
2,55405;;;145,0834121
2,55455;;;171,94052
2,55505;;;193,3041285
2,55555;;;183,8431019
2,55605;;;138,3691351
2,55655;;;84,34972496
2,55705;;;49,55756249
2,55755;;;32,46667565
2,55805;;;11,71345593
2,55855;;;-21,85792892
2,55904;;;-59,70203547
2,55954;;;-85,64356013
2,56004;;;-91,13705946
2,56054;;;-76,18253349
2,56104;;;-54,81892495
2,56154;;;-45,35789831
2,56204;;;-46,57867594
2,56254;;;-35,28648286
2,56304;;;3,77840133
2,56354;;;50,77834012
2,56404;;;72,44714306
2,56454;;;60,23936676
2,56504;;;31,24589802
2,56554;;;-1,409903601
2,56604;;;-33,45531641
2,56654;;;-47,79945357
2,56704;;;-24,60467859
2,56754;;;28,49914835
2,56804;;;84,04453056
2,56854;;;131,6548582
2,56904;;;188,421018
2,56954;;;259,2261206
2,57004;;;315,0766972
2,57054;;;327,2844735
2,57104;;;301,9533377
2,57154;;;262,8884535
2,57204;;;218,6352644
2,57254;;;166,752215
2,57304;;;112,4276105
2,57354;;;63,90169965
2,57404;;;18,12253849
2,57454;;;-29,1825947
2,57504;;;-69,46825652
2,57554;;;-90,52667065
2,57604;;;-101,2084749
2,57654;;;-119,214945
2,57704;;;-143,6304976
2,57754;;;-157,6694403
2,57804;;;-155,2278851
2,57854;;;-147,9032193
2,57904;;;-138,7473871
2,57954;;;-114,9422233
2,58004;;;-75,26695026
2,58054;;;-41,69556542
2,58104;;;-33,45531641
2,58154;;;-38,94881575
2,58204;;;-34,98128845
2,58254;;;-22,46831773
2,58304;;;-23,07870655
2,58354;;;-38,94881575
2,58404;;;-42,91634305
2,58454;;;-14,53326313
2,58504;;;31,55109243
2,58554;;;65,12247728
2,58604;;;69,70039339
2,58654;;;47,72639604
2,58704;;;7,74592863
2,58754;;;-32,84492759
2,58804;;;-51,46178646
2,58854;;;-38,64362134
2,58904;;;-13,61767991
2,58954;;;1,947234884
2,59004;;;14,4602056
2,59054;;;42,84328552
2,59104;;;80,99258648
2,59154;;;103,2717782
2,59204;;;100,5250286
2,59254;;;91,97958516
2,59304;;;93,50555719
2,59354;;;97,7782789
2,59404;;;90,75880753
2,59454;;;70,0055878
2,59504;;;41,62250789
2,59554;;;12,62903915
2,59604;;;-6,903402939
2,59654;;;-15,14365195
2,59704;;;-33,45531641
2,59754;;;-93,88380913
2,59804;;;-194,2927693
2,59854;;;-280,6627866
2,59904;;;-296,2277014
2,59954;;;-241,2927081
2,60004;;;-165,2993005
2,60054;;;-110,0591127
2,60104;;;-73,43578382
2,60154;;;-32,84492759
2,60204;;;14,15501119
2,60254;;;48,94717367
2,60304;;;59,93417235
2,60354;;;59,01858912
2,60404;;;62,68092202
2,60454;;;75,49908714
2,60504;;;97,16789009
2,60554;;;132,8756358
2,60604;;;174,0768808
2,60654;;;185,0638795
2,60704;;;133,4860246
2,60754;;;38,2653694
2,60804;;;-41,39037101
2,60854;;;-71,90981178
2,60904;;;-73,74097823
2,60954;;;-81,67603283
2,61004;;;-93,88380913
2,61054;;;-87,16953216
2,61104;;;-64,27995159
2,61154;;;-60,00722988
2,61204;;;-101,5136693
2,61254;;;-176,896688
2,61304;;;-242,2082913
2,61354;;;-257,1628173
2,61404;;;-214,1304058
2,61454;;;-139,6629703
2,61504;;;-66,11111803
2,61553;;;0,7264572533
2,61603;;;74,58350392
2,61653;;;154,2392443
2,61703;;;211,615793
2,61753;;;224,7391525
2,61803;;;205,2067104
2,61853;;;184,7586851
2,61903;;;181,0963522
2,61953;;;189,0314068
2,62003;;;195,7456838
2,62053;;;192,0833509
2,62103;;;170,7197423
2,62153;;;133,4860246
2,62203;;;94,11594601
2,62253;;;67,25883813
2,62303;;;51,69392334
2,62353;;;38,57056381
2,62403;;;29,71992598
2,62453;;;35,21342532
2,62503;;;48,03159045
2,62553;;;42,2328967
2,62603;;;3,473206923
2,62653;;;-49,93581443
2,62703;;;-90,22147624
2,62753;;;-109,7539183
2,62803;;;-120,4357226
2,62853;;;-124,4032499
2,62903;;;-110,974696
2,62953;;;-78,92928316
2,63003;;;-45,96828713
2,63053;;;-33,45531641
2,63103;;;-42,00075982
2,63153;;;-55,12411936
2,63203;;;-54,51373054
2,63253;;;-36,81245489
2,63303;;;-14,83845754
2,63353;;;-4,461847678
2,63403;;;-5,682625308
2,63453;;;-7,208597347
2,63503;;;-3,851458862
2,63553;;;-2,935875639
2,63603;;;-5,377430901
2,63653;;;0,4212628456
2,63703;;;5,304373369
2,63753;;;-29,48778911
2,63803;;;-120,4357226
2,63853;;;-212,9096281
2,63903;;;-235,1888199
2,63953;;;-194,9031581
2,64003;;;-176,896688
2,64053;;;-229,3901262
2,64103;;;-301,4160064
2,64153;;;-316,9809212
2,64203;;;-269,0653992
2,64253;;;-204,0589903
2,64303;;;-144,8512752
2,64353;;;-76,7929223
2,64403;;;7,440734223
2,64453;;;97,16789009
2,64503;;;186,895046
2,64553;;;279,0637571
2,64603;;;359,3298863
2,64653;;;399,9207425
2,64703;;;396,563604
2,64753;;;371,842857
2,64803;;;338,5766666
2,64853;;;289,1351725
2,64903;;;223,8235693
2,64953;;;162,4794933
2,65003;;;118,2263042
2,65053;;;84,65491937
2,65103;;;56,57703386
2,65153;;;42,2328967
2,65203;;;40,70692466
2,65253;;;35,51861973
2,65303;;;17,51214968
2,65353;;;-3,851458862
2,65403;;;-25,52026181
2,65453;;;-61,53320192
2,65503;;;-113,4162512
2,65553;;;-154,9226907
