"type";"begin_time";"frequency";"count";"created with version";"exported with version";"last_name";"first_name";"born";"sex";"measurement_date";"record_name"
"record";"0,00000";"2000.4";"66240";"Noraxon myoRESEARCH Software 4.2.22";"4.2.22";"MyoMetrics Demo Record";"";"";"male";"2025-12-02T15:49:38.758+01:00";"Free Capture-3"

"time";"Activity";"Marker";"FLEX.CARP.R LT (uV)"
0,00000;"Activity";;4,90354833
0,00050;;;3,377576291
0,00100;;;1,241215437
0,00150;;;0,9360210295
0,00200;;;1,851604253
0,00250;;;1,851604253
0,00300;;;0,6308266218
0,00350;;;-0,2847566013
0,00400;;;-0,2847566013
0,00450;;;0,02043780641
0,00500;;;-0,589951009
0,00550;;;-2,726311863
0,00600;;;-4,252283901
0,00650;;;-3,031506271
0,00700;;;-0,589951009
0,00750;;;0,9360210295
0,00800;;;1,851604253
0,00850;;;2,15679866
0,00900;;;2,15679866
0,00950;;;1,241215437
0,01000;;;0,3256322141
0,01050;;;0,02043780641
0,01100;;;0,02043780641
0,01150;;;0,02043780641
0,01200;;;0,3256322141
0,01250;;;1,241215437
0,01300;;;1,851604253
0,01350;;;1,851604253
0,01400;;;1,546409845
0,01450;;;2,15679866
0,01500;;;3,377576291
0,01550;;;3,987965107
0,01600;;;3,377576291
0,01650;;;2,767187476
0,01700;;;2,15679866
0,01750;;;1,241215437
0,01800;;;0,9360210295
0,01850;;;0,9360210295
0,01900;;;0,6308266218
0,01950;;;-0,2847566013
0,02000;;;-1,200339824
0,02050;;;0,02043780641
0,02100;;;2,15679866
0,02150;;;2,767187476
0,02200;;;1,546409845
0,02250;;;0,3256322141
0,02300;;;1,546409845
0,02350;;;3,072381883
0,02400;;;2,461993068
0,02450;;;0,9360210295
0,02500;;;1,241215437
0,02550;;;3,072381883
0,02600;;;3,377576291
0,02650;;;1,851604253
0,02700;;;0,6308266218
0,02750;;;0,6308266218
0,02800;;;0,9360210295
0,02849;;;0,02043780641
0,02899;;;0,02043780641
0,02949;;;0,3256322141
0,02999;;;0,6308266218
0,03049;;;0,02043780641
0,03099;;;-0,8951454167
0,03149;;;0,02043780641
0,03199;;;2,15679866
0,03249;;;3,072381883
0,03299;;;1,851604253
0,03349;;;0,6308266218
0,03399;;;0,9360210295
0,03449;;;2,461993068
0,03499;;;3,682770699
0,03549;;;3,377576291
0,03599;;;3,072381883
0,03649;;;3,072381883
0,03699;;;3,072381883
0,03749;;;2,461993068
0,03799;;;0,9360210295
0,03849;;;-1,505534232
0,03899;;;-4,862672717
0,03949;;;-7,609422386
0,03999;;;-7,609422386
0,04049;;;-4,557478309
0,04099;;;-0,8951454167
0,04149;;;0,3256322141
0,04199;;;-0,589951009
0,04249;;;-3,031506271
0,04299;;;-4,557478309
0,04349;;;-3,641895086
0,04399;;;-1,505534232
0,04449;;;0,6308266218
0,04499;;;1,241215437
0,04549;;;0,3256322141
0,04599;;;1,241215437
0,04649;;;3,682770699
0,04699;;;4,90354833
0,04749;;;3,072381883
0,04799;;;0,3256322141
0,04849;;;0,3256322141
0,04899;;;0,3256322141
0,04949;;;-3,947089494
0,04999;;;-12,1873385
0,05049;;;-16,46006021
0,05099;;;-12,49253291
0,05149;;;-4,557478309
0,05199;;;0,02043780641
0,05249;;;1,546409845
0,05299;;;1,546409845
0,05349;;;1,546409845
0,05399;;;0,3256322141
0,05449;;;-1,200339824
0,05499;;;-3,031506271
0,05549;;;-3,947089494
0,05599;;;-3,947089494
0,05649;;;-2,726311863
0,05699;;;-1,81072864
0,05749;;;-2,421117455
0,05799;;;-3,336700678
0,05849;;;-2,421117455
0,05899;;;-0,2847566013
0,05949;;;1,546409845
0,05999;;;2,15679866
0,06049;;;2,767187476
0,06099;;;3,682770699
0,06149;;;3,682770699
0,06199;;;1,851604253
0,06249;;;-0,2847566013
0,06299;;;-1,505534232
0,06349;;;-1,505534232
0,06399;;;0,02043780641
0,06449;;;1,851604253
0,06499;;;3,682770699
0,06549;;;3,987965107
0,06599;;;3,072381883
0,06649;;;2,15679866
0,06699;;;1,241215437
0,06749;;;0,3256322141
0,06799;;;0,02043780641
0,06849;;;0,9360210295
0,06899;;;0,9360210295
0,06949;;;-1,200339824
0,06999;;;-4,557478309
0,07049;;;-4,557478309
0,07099;;;-2,115923047
0,07149;;;0,02043780641
0,07199;;;0,02043780641
0,07249;;;0,3256322141
0,07299;;;1,851604253
0,07349;;;2,767187476
0,07399;;;2,15679866
0,07449;;;0,6308266218
0,07499;;;0,3256322141
0,07549;;;0,6308266218
0,07599;;;0,9360210295
0,07649;;;0,9360210295
0,07699;;;1,851604253
0,07749;;;2,461993068
0,07799;;;3,072381883
0,07849;;;2,15679866
0,07899;;;-0,2847566013
0,07949;;;-3,641895086
0,07999;;;-5,167867125
0,08049;;;-4,862672717
0,08099;;;-4,557478309
0,08149;;;-5,167867125
0,08199;;;-4,862672717
0,08249;;;-2,421117455
0,08299;;;-0,8951454167
0,08349;;;-2,726311863
0,08399;;;-4,862672717
0,08448;;;-3,947089494
0,08498;;;-0,8951454167
0,08548;;;-0,8951454167
0,08598;;;-3,947089494
0,08648;;;-5,77825594
0,08698;;;-3,641895086
0,08748;;;-0,589951009
0,08798;;;0,6308266218
0,08848;;;0,6308266218
0,08898;;;0,6308266218
0,08948;;;1,241215437
0,08998;;;1,546409845
0,09048;;;1,241215437
0,09098;;;0,3256322141
0,09148;;;0,02043780641
0,09198;;;0,9360210295
0,09248;;;2,461993068
0,09298;;;3,682770699
0,09348;;;3,072381883
0,09398;;;1,851604253
0,09448;;;1,851604253
0,09498;;;1,851604253
0,09548;;;0,02043780641
0,09598;;;-2,115923047
0,09648;;;-2,115923047
0,09698;;;-0,2847566013
0,09748;;;0,02043780641
0,09798;;;-0,8951454167
0,09848;;;-1,200339824
0,09898;;;0,02043780641
0,09948;;;0,3256322141
0,09998;;;-1,200339824
0,10048;;;-2,421117455
0,10098;;;-1,200339824
0,10148;;;1,546409845
0,10198;;;3,377576291
0,10248;;;3,072381883
0,10298;;;2,461993068
0,10348;;;1,851604253
0,10398;;;0,6308266218
0,10448;;;-0,589951009
0,10498;;;-1,505534232
0,10548;;;-1,200339824
0,10598;;;-0,589951009
0,10648;;;-0,2847566013
0,10698;;;-0,2847566013
0,10748;;;-0,589951009
0,10798;;;-0,2847566013
0,10848;;;0,02043780641
0,10898;;;0,02043780641
0,10948;;;-0,8951454167
0,10998;;;-1,200339824
0,11048;;;0,02043780641
0,11098;;;1,546409845
0,11148;;;1,851604253
0,11198;;;0,9360210295
0,11248;;;0,3256322141
0,11298;;;0,6308266218
0,11348;;;0,6308266218
0,11398;;;0,6308266218
0,11448;;;0,6308266218
0,11498;;;0,3256322141
0,11548;;;-0,8951454167
0,11598;;;-2,115923047
0,11648;;;-1,81072864
0,11698;;;-0,589951009
0,11748;;;0,02043780641
0,11798;;;0,02043780641
0,11848;;;0,02043780641
0,11898;;;0,6308266218
0,11948;;;1,241215437
0,11998;;;0,9360210295
0,12048;;;0,3256322141
0,12098;;;0,6308266218
0,12148;;;0,6308266218
0,12198;;;0,3256322141
0,12248;;;0,6308266218
0,12298;;;1,241215437
0,12348;;;0,9360210295
0,12398;;;0,02043780641
0,12448;;;-0,589951009
0,12498;;;0,3256322141
0,12548;;;1,546409845
0,12598;;;0,3256322141
0,12648;;;-1,81072864
0,12698;;;-3,336700678
0,12748;;;-3,336700678
0,12798;;;-3,031506271
0,12848;;;-2,726311863
0,12898;;;-0,589951009
0,12948;;;3,072381883
0,12998;;;5,513937145
0,13048;;;4,90354833
0,13098;;;2,767187476
0,13148;;;0,9360210295
0,13198;;;1,241215437
0,13248;;;1,546409845
0,13298;;;1,546409845
0,13348;;;1,241215437
0,13398;;;0,6308266218
0,13448;;;0,3256322141
0,13498;;;0,6308266218
0,13548;;;0,6308266218
0,13598;;;0,6308266218
0,13648;;;0,3256322141
0,13698;;;0,3256322141
0,13748;;;0,3256322141
0,13798;;;0,02043780641
0,13848;;;0,02043780641
0,13898;;;-0,2847566013
0,13948;;;-0,589951009
0,13998;;;-1,200339824
0,14048;;;-2,421117455
0,14097;;;-3,641895086
0,14147;;;-4,252283901
0,14197;;;-3,947089494
0,14247;;;-2,421117455
0,14297;;;0,02043780641
0,14347;;;3,682770699
0,14397;;;6,429520368
0,14447;;;6,12432596
0,14497;;;3,987965107
0,14547;;;1,851604253
0,14597;;;1,241215437
0,14647;;;0,9360210295
0,14697;;;0,3256322141
0,14747;;;0,02043780641
0,14797;;;0,02043780641
0,14847;;;-0,589951009
0,14897;;;-2,726311863
0,14947;;;-4,862672717
0,14997;;;-4,862672717
0,15047;;;-3,031506271
0,15097;;;-0,8951454167
0,15147;;;1,241215437
0,15197;;;4,293159514
0,15247;;;4,90354833
0,15297;;;3,072381883
0,15347;;;0,3256322141
0,15397;;;0,02043780641
0,15447;;;0,3256322141
0,15497;;;0,02043780641
0,15547;;;-1,200339824
0,15597;;;-0,8951454167
0,15647;;;0,6308266218
0,15697;;;1,546409845
0,15747;;;1,241215437
0,15797;;;1,546409845
0,15847;;;3,072381883
0,15897;;;3,682770699
0,15947;;;3,377576291
0,15997;;;4,598353922
0,16047;;;7,955492407
0,16097;;;10,70224208
0,16147;;;9,786658853
0,16197;;;6,12432596
0,16247;;;3,072381883
0,16297;;;1,546409845
0,16347;;;0,02043780641
0,16397;;;-3,031506271
0,16447;;;-7,304227978
0,16497;;;-13,10292172
0,16547;;;-18,59642106
0,16597;;;-20,73278192
0,16647;;;-17,07044902
0,16697;;;-10,05097765
0,16747;;;-3,336700678
0,16797;;;0,02043780641
0,16847;;;0,02043780641
0,16897;;;-1,505534232
0,16947;;;-3,336700678
0,16997;;;-4,557478309
0,17047;;;-3,947089494
0,17097;;;-2,421117455
0,17147;;;-1,505534232
0,17197;;;-2,115923047
0,17247;;;-3,641895086
0,17297;;;-3,336700678
0,17347;;;-0,8951454167
0,17397;;;1,851604253
0,17447;;;3,072381883
0,17497;;;2,15679866
0,17547;;;-0,2847566013
0,17597;;;-3,336700678
0,17647;;;-6,083450348
0,17697;;;-6,999033571
0,17747;;;-6,083450348
0,17797;;;-4,557478309
0,17847;;;-3,031506271
0,17897;;;-1,505534232
0,17947;;;0,3256322141
0,17997;;;2,15679866
0,18047;;;3,072381883
0,18097;;;3,377576291
0,18147;;;3,072381883
0,18197;;;2,15679866
0,18247;;;0,9360210295
0,18297;;;0,3256322141
0,18347;;;0,6308266218
0,18397;;;0,9360210295
0,18447;;;0,6308266218
0,18497;;;0,3256322141
0,18547;;;1,241215437
0,18597;;;2,461993068
0,18647;;;2,767187476
0,18697;;;2,461993068
0,18747;;;2,767187476
0,18797;;;3,682770699
0,18847;;;3,682770699
0,18897;;;3,682770699
0,18947;;;4,90354833
0,18997;;;6,429520368
0,19047;;;6,12432596
0,19097;;;3,682770699
0,19147;;;2,461993068
0,19197;;;3,987965107
0,19247;;;6,12432596
0,19297;;;6,429520368
0,19347;;;5,513937145
0,19397;;;4,293159514
0,19447;;;2,767187476
0,19497;;;0,6308266218
0,19547;;;-0,589951009
0,19597;;;0,02043780641
0,19647;;;1,546409845
0,19696;;;1,851604253
0,19746;;;0,9360210295
0,19796;;;-0,2847566013
0,19846;;;-0,8951454167
0,19896;;;-1,200339824
0,19946;;;-1,81072864
0,19996;;;-2,115923047
0,20046;;;-1,200339824
0,20096;;;0,02043780641
0,20146;;;0,02043780641
0,20196;;;-1,81072864
0,20246;;;-3,947089494
0,20296;;;-3,641895086
0,20346;;;-0,589951009
0,20396;;;1,851604253
0,20446;;;2,461993068
0,20496;;;1,241215437
0,20546;;;0,3256322141
0,20596;;;0,9360210295
0,20646;;;1,546409845
0,20696;;;1,851604253
0,20746;;;1,851604253
0,20796;;;0,9360210295
0,20846;;;-0,589951009
0,20896;;;-1,81072864
0,20946;;;-0,8951454167
0,20996;;;0,9360210295
0,21046;;;2,15679866
0,21096;;;1,546409845
0,21146;;;1,241215437
0,21196;;;1,851604253
0,21246;;;2,15679866
0,21296;;;0,9360210295
0,21346;;;0,02043780641
0,21396;;;-0,2847566013
0,21446;;;0,02043780641
0,21496;;;0,6308266218
0,21546;;;0,9360210295
0,21596;;;1,546409845
0,21646;;;1,241215437
0,21696;;;0,02043780641
0,21746;;;-1,81072864
0,21796;;;-3,336700678
0,21846;;;-3,336700678
0,21896;;;-2,421117455
0,21946;;;-1,200339824
0,21996;;;-0,589951009
0,22046;;;-1,200339824
0,22096;;;-1,81072864
0,22146;;;-2,115923047
0,22196;;;-2,115923047
0,22246;;;-1,81072864
0,22296;;;-1,81072864
0,22346;;;-1,81072864
0,22396;;;-1,505534232
0,22446;;;-0,8951454167
0,22496;;;-1,505534232
0,22546;;;-2,421117455
0,22596;;;-1,505534232
0,22646;;;0,6308266218
0,22696;;;1,851604253
0,22746;;;0,9360210295
0,22796;;;-0,589951009
0,22846;;;-1,505534232
0,22896;;;-1,81072864
0,22946;;;-2,421117455
0,22996;;;-3,031506271
0,23046;;;-2,726311863
0,23096;;;-0,589951009
0,23146;;;1,241215437
0,23196;;;2,767187476
0,23246;;;3,682770699
0,23296;;;3,682770699
0,23346;;;2,767187476
0,23396;;;1,241215437
0,23446;;;0,6308266218
0,23496;;;0,3256322141
0,23546;;;0,3256322141
0,23596;;;0,02043780641
0,23646;;;0,02043780641
0,23696;;;0,02043780641
0,23746;;;0,02043780641
0,23796;;;0,02043780641
0,23846;;;0,02043780641
0,23896;;;0,9360210295
0,23946;;;1,546409845
0,23996;;;0,9360210295
0,24046;;;0,02043780641
0,24096;;;-1,505534232
0,24146;;;-3,336700678
0,24196;;;-4,862672717
0,24246;;;-4,862672717
0,24296;;;-3,641895086
0,24346;;;-1,505534232
0,24396;;;0,02043780641
0,24446;;;1,241215437
0,24496;;;1,546409845
0,24546;;;0,3256322141
0,24596;;;-1,200339824
0,24646;;;-1,505534232
0,24696;;;0,02043780641
0,24746;;;1,851604253
0,24796;;;1,546409845
0,24846;;;-0,2847566013
0,24896;;;-0,589951009
0,24946;;;1,546409845
0,24996;;;3,377576291
0,25046;;;1,851604253
0,25096;;;-0,2847566013
0,25146;;;-0,8951454167
0,25196;;;0,02043780641
0,25246;;;0,02043780641
0,25296;;;-0,8951454167
0,25345;;;-0,8951454167
0,25395;;;0,02043780641
0,25445;;;0,3256322141
0,25495;;;-1,200339824
0,25545;;;-2,115923047
0,25595;;;-1,81072864
0,25645;;;-2,115923047
0,25695;;;-3,031506271
0,25745;;;-3,336700678
0,25795;;;-1,200339824
0,25845;;;1,241215437
0,25895;;;2,461993068
0,25945;;;3,072381883
0,25995;;;4,293159514
0,26045;;;5,513937145
0,26095;;;4,293159514
0,26145;;;1,241215437
0,26195;;;-1,505534232
0,26245;;;-2,115923047
0,26295;;;-1,200339824
0,26345;;;0,02043780641
0,26395;;;0,02043780641
0,26445;;;-1,505534232
0,26495;;;-2,726311863
0,26545;;;-2,421117455
0,26595;;;-0,8951454167
0,26645;;;0,3256322141
0,26695;;;0,6308266218
0,26745;;;1,241215437
0,26795;;;2,767187476
0,26845;;;3,987965107
0,26895;;;4,293159514
0,26945;;;3,682770699
0,26995;;;3,682770699
0,27045;;;4,293159514
0,27095;;;4,598353922
0,27145;;;3,987965107
0,27195;;;1,851604253
0,27245;;;0,02043780641
0,27295;;;-0,8951454167
0,27345;;;0,02043780641
0,27395;;;1,546409845
0,27445;;;2,15679866
0,27495;;;1,546409845
0,27545;;;0,6308266218
0,27595;;;0,02043780641
0,27645;;;0,02043780641
0,27695;;;0,02043780641
0,27745;;;1,546409845
0,27795;;;3,682770699
0,27845;;;5,208742737
0,27895;;;4,598353922
0,27945;;;3,072381883
0,27995;;;3,377576291
0,28045;;;5,208742737
0,28095;;;6,734714776
0,28145;;;6,734714776
0,28195;;;6,429520368
0,28245;;;5,513937145
0,28295;;;1,851604253
0,28345;;;-4,557478309
0,28395;;;-9,440588832
0,28445;;;-9,135394425
0,28495;;;-6,083450348
0,28545;;;-6,388644755
0,28595;;;-10,35617206
0,28645;;;-13,40811613
0,28695;;;-12,1873385
0,28745;;;-9,135394425
0,28795;;;-7,304227978
0,28845;;;-6,083450348
0,28895;;;-4,557478309
0,28945;;;-3,031506271
0,28995;;;-2,726311863
0,29045;;;-3,031506271
0,29095;;;-3,031506271
0,29145;;;-2,421117455
0,29195;;;-2,115923047
0,29245;;;-2,115923047
0,29295;;;-1,81072864
0,29345;;;-2,421117455
0,29395;;;-3,947089494
0,29445;;;-4,862672717
0,29495;;;-3,947089494
0,29545;;;-2,115923047
0,29595;;;-0,589951009
0,29645;;;0,3256322141
0,29695;;;2,767187476
0,29745;;;4,90354833
0,29795;;;5,208742737
0,29845;;;3,377576291
0,29895;;;1,851604253
0,29945;;;1,546409845
0,29995;;;1,851604253
0,30045;;;1,546409845
0,30095;;;1,241215437
0,30145;;;1,241215437
0,30195;;;1,546409845
0,30245;;;1,851604253
0,30295;;;2,15679866
0,30345;;;1,851604253
0,30395;;;0,9360210295
0,30445;;;-0,589951009
0,30495;;;-1,200339824
0,30545;;;0,6308266218
0,30595;;;3,682770699
0,30645;;;4,293159514
0,30695;;;1,546409845
0,30745;;;-0,8951454167
0,30795;;;-0,589951009
0,30845;;;1,241215437
0,30895;;;1,546409845
0,30944;;;-0,589951009
0,30994;;;-2,726311863
0,31044;;;-3,031506271
0,31094;;;-2,115923047
0,31144;;;-2,421117455
0,31194;;;-2,726311863
0,31244;;;-2,421117455
0,31294;;;-1,505534232
0,31344;;;-1,200339824
0,31394;;;-1,200339824
0,31444;;;-0,2847566013
0,31494;;;1,241215437
0,31544;;;1,546409845
0,31594;;;0,3256322141
0,31644;;;-0,2847566013
0,31694;;;0,02043780641
0,31744;;;0,3256322141
0,31794;;;0,3256322141
0,31844;;;0,6308266218
0,31894;;;1,851604253
0,31944;;;2,767187476
0,31994;;;1,851604253
0,32044;;;0,02043780641
0,32094;;;-0,8951454167
0,32144;;;-1,200339824
0,32194;;;-1,505534232
0,32244;;;-1,505534232
0,32294;;;0,02043780641
0,32344;;;2,15679866
0,32394;;;4,293159514
0,32444;;;4,293159514
0,32494;;;2,15679866
0,32544;;;0,02043780641
0,32594;;;-2,115923047
0,32644;;;-2,115923047
0,32694;;;-0,589951009
0,32744;;;1,546409845
0,32794;;;2,767187476
0,32844;;;1,546409845
0,32894;;;0,02043780641
0,32944;;;-0,2847566013
0,32994;;;0,6308266218
0,33044;;;2,15679866
0,33094;;;2,461993068
0,33144;;;1,851604253
0,33194;;;1,546409845
0,33244;;;2,15679866
0,33294;;;2,461993068
0,33344;;;1,851604253
0,33394;;;0,3256322141
0,33444;;;-0,8951454167
0,33494;;;-1,81072864
0,33544;;;-1,81072864
0,33594;;;0,02043780641
0,33644;;;3,377576291
0,33694;;;5,513937145
0,33744;;;5,208742737
0,33794;;;3,987965107
0,33844;;;3,682770699
0,33894;;;4,90354833
0,33944;;;4,90354833
0,33994;;;2,767187476
0,34044;;;0,02043780641
0,34094;;;-1,505534232
0,34144;;;-0,2847566013
0,34194;;;0,9360210295
0,34244;;;0,02043780641
0,34294;;;-3,031506271
0,34344;;;-5,473061532
0,34394;;;-3,947089494
0,34444;;;-0,8951454167
0,34494;;;0,02043780641
0,34544;;;-0,589951009
0,34594;;;-0,8951454167
0,34644;;;0,02043780641
0,34694;;;0,02043780641
0,34744;;;-1,505534232
0,34794;;;-3,031506271
0,34844;;;-2,115923047
0,34894;;;0,6308266218
0,34944;;;3,072381883
0,34994;;;3,682770699
0,35044;;;2,461993068
0,35094;;;0,9360210295
0,35144;;;0,02043780641
0,35194;;;0,3256322141
0,35244;;;2,461993068
0,35294;;;3,072381883
0,35344;;;0,9360210295
0,35394;;;-0,8951454167
0,35444;;;-2,421117455
0,35494;;;-3,947089494
0,35544;;;-6,999033571
0,35594;;;-8,219811202
0,35644;;;-5,167867125
0,35694;;;0,02043780641
0,35744;;;1,851604253
0,35794;;;1,241215437
0,35844;;;0,9360210295
0,35894;;;2,461993068
0,35944;;;2,767187476
0,35994;;;1,241215437
0,36044;;;0,02043780641
0,36094;;;0,9360210295
0,36144;;;1,546409845
0,36194;;;0,3256322141
0,36244;;;-1,200339824
0,36294;;;-1,81072864
0,36344;;;-1,81072864
0,36394;;;-1,81072864
0,36444;;;-1,200339824
0,36494;;;0,02043780641
0,36544;;;1,241215437
0,36593;;;2,461993068
0,36643;;;3,377576291
0,36693;;;3,682770699
0,36743;;;2,461993068
0,36793;;;0,02043780641
0,36843;;;-0,8951454167
0,36893;;;0,02043780641
0,36943;;;1,241215437
0,36993;;;1,546409845
0,37043;;;1,241215437
0,37093;;;0,9360210295
0,37143;;;1,241215437
0,37193;;;1,241215437
0,37243;;;1,241215437
0,37293;;;1,241215437
0,37343;;;0,6308266218
0,37393;;;0,3256322141
0,37443;;;0,6308266218
0,37493;;;0,6308266218
0,37543;;;0,3256322141
0,37593;;;-0,2847566013
0,37643;;;0,02043780641
0,37693;;;0,9360210295
0,37743;;;1,241215437
0,37793;;;0,02043780641
0,37843;;;-2,115923047
0,37893;;;-2,726311863
0,37943;;;-3,031506271
0,37993;;;-3,641895086
0,38043;;;-4,252283901
0,38093;;;-3,641895086
0,38143;;;-2,115923047
0,38193;;;-0,8951454167
0,38243;;;-0,8951454167
0,38293;;;-1,505534232
0,38343;;;-1,505534232
0,38393;;;-0,589951009
0,38443;;;0,02043780641
0,38493;;;-0,589951009
0,38543;;;-1,200339824
0,38593;;;-1,200339824
0,38643;;;0,02043780641
0,38693;;;1,546409845
0,38743;;;1,546409845
0,38793;;;0,6308266218
0,38843;;;-0,2847566013
0,38893;;;-0,589951009
0,38943;;;0,02043780641
0,38993;;;0,9360210295
0,39043;;;2,15679866
0,39093;;;2,461993068
0,39143;;;1,851604253
0,39193;;;0,9360210295
0,39243;;;0,9360210295
0,39293;;;0,9360210295
0,39343;;;0,02043780641
0,39393;;;-0,8951454167
0,39443;;;-0,8951454167
0,39493;;;0,02043780641
0,39543;;;0,3256322141
0,39593;;;0,02043780641
0,39643;;;-0,2847566013
0,39693;;;0,02043780641
0,39743;;;0,02043780641
0,39793;;;-0,589951009
0,39843;;;-1,505534232
0,39893;;;-1,200339824
0,39943;;;-0,2847566013
0,39993;;;0,3256322141
0,40043;;;1,241215437
0,40093;;;1,851604253
0,40143;;;1,546409845
0,40193;;;0,3256322141
0,40243;;;-1,200339824
0,40293;;;-2,115923047
0,40343;;;-1,81072864
0,40393;;;-1,505534232
0,40443;;;-1,81072864
0,40493;;;-2,115923047
0,40543;;;-1,81072864
0,40593;;;-0,589951009
0,40643;;;-0,2847566013
0,40693;;;-1,505534232
0,40743;;;-3,641895086
0,40793;;;-4,557478309
0,40843;;;-4,252283901
0,40893;;;-4,557478309
0,40943;;;-6,388644755
0,40993;;;-8,525005609
0,41043;;;-7,914616794
0,41093;;;-5,167867125
0,41143;;;-2,115923047
0,41193;;;-0,8951454167
0,41243;;;-0,2847566013
0,41293;;;0,02043780641
0,41343;;;0,9360210295
0,41393;;;2,15679866
0,41443;;;2,461993068
0,41493;;;1,241215437
0,41543;;;-0,2847566013
0,41593;;;-0,8951454167
0,41643;;;0,02043780641
0,41693;;;1,851604253
0,41743;;;2,15679866
0,41793;;;2,15679866
0,41843;;;2,767187476
0,41893;;;3,682770699
0,41943;;;3,987965107
0,41993;;;3,682770699
0,42043;;;3,072381883
0,42093;;;2,15679866
0,42143;;;0,3256322141
0,42192;;;-2,421117455
0,42242;;;-4,862672717
0,42292;;;-5,473061532
0,42342;;;-5,167867125
0,42392;;;-3,641895086
0,42442;;;-1,505534232
0,42492;;;0,3256322141
0,42542;;;1,546409845
0,42592;;;1,851604253
0,42642;;;1,241215437
0,42692;;;0,6308266218
0,42742;;;0,3256322141
0,42792;;;0,3256322141
0,42842;;;0,9360210295
0,42892;;;1,546409845
0,42942;;;3,072381883
0,42992;;;5,819131553
0,43042;;;7,650297999
0,43092;;;7,650297999
0,43142;;;6,12432596
0,43192;;;4,293159514
0,43242;;;3,072381883
0,43292;;;1,546409845
0,43342;;;0,9360210295
0,43392;;;3,072381883
0,43442;;;6,12432596
0,43492;;;4,598353922
0,43542;;;-2,726311863
0,43592;;;-9,74578324
0,43642;;;-9,74578324
0,43692;;;-3,947089494
0,43742;;;0,02043780641
0,43792;;;0,6308266218
0,43842;;;0,6308266218
0,43892;;;2,461993068
0,43942;;;3,377576291
0,43992;;;1,241215437
0,44042;;;-1,200339824
0,44092;;;-1,81072864
0,44142;;;-0,589951009
0,44192;;;-0,8951454167
0,44242;;;-2,421117455
0,44292;;;-2,726311863
0,44342;;;-1,505534232
0,44392;;;0,02043780641
0,44442;;;0,02043780641
0,44492;;;-0,2847566013
0,44542;;;-0,2847566013
0,44592;;;0,3256322141
0,44642;;;0,6308266218
0,44692;;;0,6308266218
0,44742;;;0,3256322141
0,44792;;;1,241215437
0,44842;;;1,851604253
0,44892;;;1,546409845
0,44942;;;0,02043780641
0,44992;;;0,02043780641
0,45042;;;0,9360210295
0,45092;;;1,851604253
0,45142;;;1,241215437
0,45192;;;0,6308266218
0,45242;;;0,9360210295
0,45292;;;0,6308266218
0,45342;;;-0,589951009
0,45392;;;-1,505534232
0,45442;;;0,3256322141
0,45492;;;3,072381883
0,45542;;;3,377576291
0,45592;;;0,9360210295
0,45642;;;-0,2847566013
0,45692;;;0,02043780641
0,45742;;;0,3256322141
0,45792;;;0,02043780641
0,45842;;;0,02043780641
0,45892;;;1,546409845
0,45942;;;3,072381883
0,45992;;;2,767187476
0,46042;;;1,241215437
0,46092;;;0,02043780641
0,46142;;;-1,200339824
0,46192;;;-2,726311863
0,46242;;;-2,726311863
0,46292;;;-0,8951454167
0,46342;;;0,6308266218
0,46392;;;1,241215437
0,46442;;;0,3256322141
0,46492;;;-0,2847566013
0,46542;;;-0,8951454167
0,46592;;;-1,505534232
0,46642;;;-1,505534232
0,46692;;;-1,200339824
0,46742;;;-1,505534232
0,46792;;;-2,115923047
0,46842;;;-1,81072864
0,46892;;;-0,589951009
0,46942;;;0,3256322141
0,46992;;;0,3256322141
0,47042;;;0,02043780641
0,47092;;;-0,2847566013
0,47142;;;-0,589951009
0,47192;;;-1,200339824
0,47242;;;-1,505534232
0,47292;;;-1,81072864
0,47342;;;-1,505534232
0,47392;;;-0,8951454167
0,47442;;;0,6308266218
0,47492;;;2,461993068
0,47542;;;3,072381883
0,47592;;;2,15679866
0,47642;;;0,9360210295
0,47692;;;1,241215437
0,47742;;;2,461993068
0,47792;;;2,767187476
0,47841;;;1,546409845
0,47891;;;0,3256322141
0,47941;;;0,3256322141
0,47991;;;0,6308266218
0,48041;;;0,6308266218
0,48091;;;0,3256322141
0,48141;;;0,3256322141
0,48191;;;0,6308266218
0,48241;;;0,6308266218
0,48291;;;0,3256322141
0,48341;;;0,6308266218
0,48391;;;1,546409845
0,48441;;;1,851604253
0,48491;;;1,546409845
0,48541;;;1,546409845
0,48591;;;1,241215437
0,48641;;;1,241215437
0,48691;;;1,546409845
0,48741;;;1,851604253
0,48791;;;1,851604253
0,48841;;;0,9360210295
0,48891;;;0,02043780641
0,48941;;;-0,589951009
0,48991;;;0,02043780641
0,49041;;;0,02043780641
0,49091;;;-0,2847566013
0,49141;;;0,02043780641
0,49191;;;0,9360210295
0,49241;;;0,3256322141
0,49291;;;-0,8951454167
0,49341;;;-1,505534232
0,49391;;;0,02043780641
0,49441;;;1,241215437
0,49491;;;1,546409845
0,49541;;;1,241215437
0,49591;;;0,6308266218
0,49641;;;0,3256322141
0,49691;;;0,3256322141
0,49741;;;0,9360210295
0,49791;;;1,851604253
0,49841;;;1,241215437
0,49891;;;0,02043780641
0,49941;;;0,02043780641
0,49991;;;1,241215437
0,50041;;;1,851604253
0,50091;;;0,6308266218
0,50141;;;-0,589951009
0,50191;;;-0,589951009
0,50241;;;0,3256322141
0,50291;;;0,02043780641
0,50341;;;-0,8951454167
0,50391;;;-1,505534232
0,50441;;;-1,81072864
0,50491;;;-2,726311863
0,50541;;;-4,252283901
0,50591;;;-4,252283901
0,50641;;;-2,726311863
0,50691;;;-0,8951454167
0,50741;;;-0,589951009
0,50791;;;-1,200339824
0,50841;;;-1,81072864
0,50891;;;-2,421117455
0,50941;;;-2,726311863
0,50991;;;-3,031506271
0,51041;;;-3,031506271
0,51091;;;-2,726311863
0,51141;;;-2,421117455
0,51191;;;-1,505534232
0,51241;;;-0,8951454167
0,51291;;;-1,81072864
0,51341;;;-2,421117455
0,51391;;;-1,81072864
0,51441;;;0,02043780641
0,51491;;;0,3256322141
0,51541;;;-1,200339824
0,51591;;;-3,336700678
0,51641;;;-2,726311863
0,51691;;;-0,2847566013
0,51741;;;0,3256322141
0,51791;;;-0,8951454167
0,51841;;;-2,421117455
0,51891;;;-1,81072864
0,51941;;;-0,8951454167
0,51991;;;-1,200339824
0,52041;;;-2,115923047
0,52091;;;-2,421117455
0,52141;;;-1,81072864
0,52191;;;-1,505534232
0,52241;;;-1,200339824
0,52291;;;-0,8951454167
0,52341;;;-0,2847566013
0,52391;;;-0,8951454167
0,52441;;;-1,505534232
0,52491;;;-1,200339824
0,52541;;;0,02043780641
0,52591;;;0,02043780641
0,52641;;;-0,589951009
0,52691;;;-1,200339824
0,52741;;;-0,8951454167
0,52791;;;-0,589951009
0,52841;;;-0,8951454167
0,52891;;;-1,200339824
0,52941;;;-1,505534232
0,52991;;;-1,81072864
0,53041;;;-2,115923047
0,53091;;;-1,81072864
0,53141;;;-1,505534232
0,53191;;;-2,421117455
0,53241;;;-3,031506271
0,53291;;;-2,115923047
0,53341;;;0,02043780641
0,53391;;;0,3256322141
0,53440;;;-0,8951454167
0,53490;;;-2,421117455
0,53540;;;-2,421117455
0,53590;;;-2,115923047
0,53640;;;-2,115923047
0,53690;;;-2,421117455
0,53740;;;-2,115923047
0,53790;;;-1,81072864
0,53840;;;-2,115923047
0,53890;;;-2,115923047
0,53940;;;-1,200339824
0,53990;;;0,02043780641
0,54040;;;1,241215437
0,54090;;;1,241215437
0,54140;;;1,546409845
0,54190;;;1,851604253
0,54240;;;1,546409845
0,54290;;;0,02043780641
0,54340;;;-1,505534232
0,54390;;;-1,81072864
0,54440;;;-0,589951009
0,54490;;;1,546409845
0,54540;;;3,072381883
0,54590;;;3,377576291
0,54640;;;2,767187476
0,54690;;;1,241215437
0,54740;;;-0,589951009
0,54790;;;-2,115923047
0,54840;;;-1,81072864
0,54890;;;-0,2847566013
0,54940;;;0,02043780641
0,54990;;;0,02043780641
0,55040;;;0,02043780641
0,55090;;;0,9360210295
0,55140;;;1,851604253
0,55190;;;1,851604253
0,55240;;;1,546409845
0,55290;;;1,546409845
0,55340;;;1,546409845
0,55390;;;0,9360210295
0,55440;;;0,02043780641
0,55490;;;-0,2847566013
0,55540;;;-0,589951009
0,55590;;;-1,200339824
0,55640;;;-0,8951454167
0,55690;;;0,6308266218
0,55740;;;3,987965107
0,55790;;;7,039909184
0,55840;;;7,955492407
0,55890;;;7,650297999
0,55940;;;7,039909184
0,55990;;;6,734714776
0,56040;;;6,429520368
0,56090;;;6,12432596
0,56140;;;4,90354833
0,56190;;;3,682770699
0,56240;;;3,072381883
0,56290;;;3,072381883
0,56340;;;3,377576291
0,56390;;;3,072381883
0,56440;;;2,767187476
0,56490;;;2,461993068
0,56540;;;2,461993068
0,56590;;;2,15679866
0,56640;;;2,461993068
0,56690;;;3,072381883
0,56740;;;3,072381883
0,56790;;;2,767187476
0,56840;;;2,767187476
0,56890;;;3,987965107
0,56940;;;4,293159514
0,56990;;;2,767187476
0,57040;;;1,241215437
0,57090;;;0,9360210295
0,57140;;;1,851604253
0,57190;;;1,851604253
0,57240;;;0,9360210295
0,57290;;;0,9360210295
0,57340;;;1,546409845
0,57390;;;1,851604253
0,57440;;;1,241215437
0,57490;;;0,3256322141
0,57540;;;0,02043780641
0,57590;;;-0,589951009
0,57640;;;0,02043780641
0,57690;;;0,9360210295
0,57740;;;1,546409845
0,57790;;;0,6308266218
0,57840;;;-0,2847566013
0,57890;;;-0,589951009
0,57940;;;0,02043780641
0,57990;;;-0,589951009
0,58040;;;-1,200339824
0,58090;;;-1,200339824
0,58140;;;-0,2847566013
0,58190;;;-0,2847566013
0,58240;;;-1,505534232
0,58290;;;-1,81072864
0,58340;;;-1,505534232
0,58390;;;-1,200339824
0,58440;;;-1,81072864
0,58490;;;-1,81072864
0,58540;;;-1,505534232
0,58590;;;-0,589951009
0,58640;;;0,02043780641
0,58690;;;0,9360210295
0,58740;;;1,241215437
0,58790;;;0,02043780641
0,58840;;;-1,200339824
0,58890;;;-1,200339824
0,58940;;;0,02043780641
0,58990;;;0,02043780641
0,59040;;;-1,200339824
0,59089;;;-1,505534232
0,59139;;;-0,589951009
0,59189;;;-0,2847566013
0,59239;;;-1,505534232
0,59289;;;-2,115923047
0,59339;;;0,02043780641
0,59389;;;1,241215437
0,59439;;;0,02043780641
0,59489;;;-2,115923047
0,59539;;;-1,505534232
0,59589;;;1,241215437
0,59639;;;3,072381883
0,59689;;;1,546409845
0,59739;;;0,02043780641
0,59789;;;0,02043780641
0,59839;;;0,3256322141
0,59889;;;-0,589951009
0,59939;;;-1,505534232
0,59989;;;-1,200339824
0,60039;;;0,02043780641
0,60089;;;0,02043780641
0,60139;;;-0,2847566013
0,60189;;;-0,8951454167
0,60239;;;-0,589951009
0,60289;;;-0,8951454167
0,60339;;;-1,505534232
0,60389;;;-2,115923047
0,60439;;;-2,115923047
0,60489;;;-2,115923047
0,60539;;;-2,421117455
0,60589;;;-1,81072864
0,60639;;;-0,589951009
0,60689;;;0,6308266218
0,60739;;;0,9360210295
0,60789;;;0,02043780641
0,60839;;;-1,200339824
0,60889;;;-1,81072864
0,60939;;;-1,505534232
0,60989;;;-1,200339824
0,61039;;;-1,200339824
0,61089;;;-1,505534232
0,61139;;;-1,505534232
0,61189;;;-1,81072864
0,61239;;;-2,115923047
0,61289;;;-1,81072864
0,61339;;;-1,505534232
0,61389;;;-1,200339824
0,61439;;;-1,200339824
0,61489;;;-0,8951454167
0,61539;;;-0,2847566013
0,61589;;;-0,2847566013
0,61639;;;-0,8951454167
0,61689;;;-1,505534232
0,61739;;;-1,505534232
0,61789;;;-1,200339824
0,61839;;;-0,8951454167
0,61889;;;-0,8951454167
0,61939;;;-0,8951454167
0,61989;;;-0,8951454167
0,62039;;;-0,589951009
0,62089;;;0,02043780641
0,62139;;;1,241215437
0,62189;;;0,6308266218
0,62239;;;-1,200339824
0,62289;;;-2,726311863
0,62339;;;-1,81072864
0,62389;;;-0,2847566013
0,62439;;;0,02043780641
0,62489;;;-0,8951454167
0,62539;;;-1,505534232
0,62589;;;-2,115923047
0,62639;;;-3,641895086
0,62689;;;-6,083450348
0,62739;;;-7,609422386
0,62789;;;-7,609422386
0,62839;;;-6,999033571
0,62889;;;-6,693839163
0,62939;;;-5,473061532
0,62989;;;-3,031506271
0,63039;;;0,02043780641
0,63089;;;2,461993068
0,63139;;;3,987965107
0,63189;;;4,293159514
0,63239;;;3,072381883
0,63289;;;1,546409845
0,63339;;;0,9360210295
0,63389;;;0,9360210295
0,63439;;;0,9360210295
0,63489;;;0,3256322141
0,63539;;;0,3256322141
0,63589;;;0,9360210295
0,63639;;;0,9360210295
0,63689;;;0,02043780641
0,63739;;;-0,589951009
0,63789;;;0,02043780641
0,63839;;;0,9360210295
0,63889;;;0,9360210295
0,63939;;;0,3256322141
0,63989;;;0,3256322141
0,64039;;;1,546409845
0,64089;;;3,072381883
0,64139;;;3,987965107
0,64189;;;3,377576291
0,64239;;;2,767187476
0,64289;;;2,767187476
0,64339;;;2,15679866
0,64389;;;0,3256322141
0,64439;;;-0,8951454167
0,64489;;;0,02043780641
0,64539;;;2,461993068
0,64589;;;3,377576291
0,64639;;;1,851604253
0,64688;;;0,6308266218
0,64738;;;1,546409845
0,64788;;;2,461993068
0,64838;;;1,851604253
0,64888;;;0,02043780641
0,64938;;;0,02043780641
0,64988;;;0,6308266218
0,65038;;;1,546409845
0,65088;;;0,9360210295
0,65138;;;0,3256322141
0,65188;;;0,9360210295
0,65238;;;3,072381883
0,65288;;;4,293159514
0,65338;;;3,377576291
0,65388;;;1,546409845
0,65438;;;0,02043780641
0,65488;;;0,02043780641
0,65538;;;0,9360210295
0,65588;;;1,546409845
0,65638;;;1,546409845
0,65688;;;2,461993068
0,65738;;;3,682770699
0,65788;;;4,293159514
0,65838;;;4,293159514
0,65888;;;3,682770699
0,65938;;;3,377576291
0,65988;;;2,767187476
0,66038;;;2,15679866
0,66088;;;1,546409845
0,66138;;;1,851604253
0,66188;;;1,241215437
0,66238;;;0,02043780641
0,66288;;;-0,8951454167
0,66338;;;-0,8951454167
0,66388;;;0,02043780641
0,66438;;;0,9360210295
0,66488;;;0,9360210295
0,66538;;;0,6308266218
0,66588;;;0,02043780641
0,66638;;;-0,589951009
0,66688;;;-1,505534232
0,66738;;;-1,200339824
0,66788;;;0,02043780641
0,66838;;;0,6308266218
0,66888;;;0,3256322141
0,66938;;;-0,2847566013
0,66988;;;0,02043780641
0,67038;;;0,9360210295
0,67088;;;1,241215437
0,67138;;;0,3256322141
0,67188;;;-0,8951454167
0,67238;;;-2,421117455
0,67288;;;-2,726311863
0,67338;;;-1,81072864
0,67388;;;-0,2847566013
0,67438;;;0,9360210295
0,67488;;;2,15679866
0,67538;;;2,15679866
0,67588;;;1,546409845
0,67638;;;0,9360210295
0,67688;;;0,9360210295
0,67738;;;1,241215437
0,67788;;;0,3256322141
0,67838;;;-1,505534232
0,67888;;;-3,641895086
0,67938;;;-4,252283901
0,67988;;;-3,031506271
0,68038;;;-2,115923047
0,68088;;;-2,726311863
0,68138;;;-4,557478309
0,68188;;;-4,557478309
0,68238;;;-2,115923047
0,68288;;;-0,2847566013
0,68338;;;-1,200339824
0,68388;;;-3,641895086
0,68438;;;-4,252283901
0,68488;;;-2,726311863
0,68538;;;-1,200339824
0,68588;;;-1,505534232
0,68638;;;-1,505534232
0,68688;;;-0,589951009
0,68738;;;0,02043780641
0,68788;;;-0,2847566013
0,68838;;;-0,589951009
0,68888;;;-0,8951454167
0,68938;;;-2,115923047
0,68988;;;-3,336700678
0,69038;;;-2,726311863
0,69088;;;-0,2847566013
0,69138;;;0,9360210295
0,69188;;;0,02043780641
0,69238;;;-1,200339824
0,69288;;;-1,200339824
0,69338;;;-0,8951454167
0,69388;;;-0,8951454167
0,69438;;;-1,200339824
0,69488;;;-0,8951454167
0,69538;;;-1,505534232
0,69588;;;-3,336700678
0,69638;;;-4,862672717
0,69688;;;-4,252283901
0,69738;;;-3,031506271
0,69788;;;-2,726311863
0,69838;;;-1,81072864
0,69888;;;0,3256322141
0,69938;;;3,072381883
0,69988;;;3,377576291
0,70038;;;1,851604253
0,70088;;;0,9360210295
0,70138;;;0,02043780641
0,70188;;;-0,8951454167
0,70238;;;-1,200339824
0,70288;;;0,02043780641
0,70337;;;1,851604253
0,70387;;;3,072381883
0,70437;;;3,377576291
0,70487;;;3,987965107
0,70537;;;3,377576291
0,70587;;;1,851604253
0,70637;;;0,9360210295
0,70687;;;1,241215437
0,70737;;;1,241215437
0,70787;;;0,02043780641
0,70837;;;-0,8951454167
0,70887;;;0,9360210295
0,70937;;;3,377576291
0,70987;;;3,072381883
0,71037;;;1,241215437
0,71087;;;1,241215437
0,71137;;;2,15679866
0,71187;;;1,546409845
0,71237;;;-0,2847566013
0,71287;;;-1,505534232
0,71337;;;-1,505534232
0,71387;;;-2,421117455
0,71437;;;-3,947089494
0,71487;;;-3,336700678
0,71537;;;-0,8951454167
0,71587;;;0,6308266218
0,71637;;;0,9360210295
0,71687;;;1,546409845
0,71737;;;2,15679866
0,71787;;;1,241215437
0,71837;;;-0,589951009
0,71887;;;-0,8951454167
0,71937;;;0,6308266218
0,71987;;;2,767187476
0,72037;;;3,377576291
0,72087;;;3,987965107
0,72137;;;4,90354833
0,72187;;;4,293159514
0,72237;;;1,546409845
0,72287;;;-0,589951009
0,72337;;;-1,505534232
0,72387;;;-2,115923047
0,72437;;;-3,031506271
0,72487;;;-3,031506271
0,72537;;;-0,8951454167
0,72587;;;1,546409845
0,72637;;;2,15679866
0,72687;;;0,6308266218
0,72737;;;0,02043780641
0,72787;;;0,3256322141
0,72837;;;2,767187476
0,72887;;;5,208742737
0,72937;;;6,12432596
0,72987;;;4,90354833
0,73037;;;2,461993068
0,73087;;;0,02043780641
0,73137;;;-0,8951454167
0,73187;;;-1,505534232
0,73237;;;-2,421117455
0,73287;;;-3,031506271
0,73337;;;-2,726311863
0,73387;;;-1,81072864
0,73437;;;-0,589951009
0,73487;;;0,02043780641
0,73537;;;0,3256322141
0,73587;;;1,241215437
0,73637;;;1,546409845
0,73687;;;0,02043780641
0,73737;;;-2,726311863
0,73787;;;-5,167867125
0,73837;;;-6,083450348
0,73887;;;-6,388644755
0,73937;;;-6,388644755
0,73987;;;-5,167867125
0,74037;;;-2,115923047
0,74087;;;0,3256322141
0,74137;;;1,851604253
0,74187;;;2,767187476
0,74237;;;4,293159514
0,74287;;;5,208742737
0,74337;;;4,293159514
0,74387;;;1,851604253
0,74437;;;0,3256322141
0,74487;;;0,02043780641
0,74537;;;0,02043780641
0,74587;;;-0,589951009
0,74637;;;-0,589951009
0,74687;;;0,02043780641
0,74737;;;0,02043780641
0,74787;;;0,02043780641
0,74837;;;0,6308266218
0,74887;;;1,851604253
0,74937;;;1,241215437
0,74987;;;-1,505534232
0,75037;;;-3,641895086
0,75087;;;-3,641895086
0,75137;;;-3,641895086
0,75187;;;-4,557478309
0,75237;;;-4,557478309
0,75287;;;-1,505534232
0,75337;;;2,15679866
0,75387;;;3,072381883
0,75437;;;0,3256322141
0,75487;;;-0,8951454167
0,75537;;;0,3256322141
0,75587;;;2,15679866
0,75637;;;1,546409845
0,75687;;;-0,2847566013
0,75737;;;-1,200339824
0,75787;;;0,02043780641
0,75837;;;1,546409845
0,75887;;;1,241215437
0,75936;;;0,6308266218
0,75986;;;0,6308266218
0,76036;;;1,851604253
0,76086;;;2,461993068
0,76136;;;1,241215437
0,76186;;;-0,2847566013
0,76236;;;-0,2847566013
0,76286;;;0,3256322141
0,76336;;;1,241215437
0,76386;;;0,9360210295
0,76436;;;0,3256322141
0,76486;;;0,02043780641
0,76536;;;0,02043780641
0,76586;;;0,02043780641
0,76636;;;1,241215437
0,76686;;;3,377576291
0,76736;;;3,072381883
0,76786;;;0,3256322141
0,76836;;;-1,81072864
0,76886;;;-1,200339824
0,76936;;;0,02043780641
0,76986;;;0,02043780641
0,77036;;;-0,2847566013
0,77086;;;1,851604253
0,77136;;;6,429520368
0,77186;;;8,87107563
0,77236;;;7,955492407
0,77286;;;5,513937145
0,77336;;;3,987965107
0,77386;;;2,461993068
0,77436;;;0,9360210295
0,77486;;;-0,8951454167
0,77536;;;-3,641895086
0,77586;;;-5,77825594
0,77636;;;-6,388644755
0,77686;;;-7,609422386
0,77736;;;-12,1873385
0,77786;;;-19,81719869
0,77836;;;-22,25875396
0,77886;;;-14,62889376
0,77936;;;-1,505534232
0,77986;;;5,819131553
0,78036;;;5,819131553
0,78086;;;2,15679866
0,78136;;;0,02043780641
0,78186;;;-1,505534232
0,78236;;;-0,2847566013
0,78286;;;4,598353922
0,78336;;;10,09185326
0,78386;;;10,39704767
0,78436;;;5,819131553
0,78486;;;2,767187476
0,78536;;;3,072381883
0,78586;;;2,767187476
0,78636;;;-0,589951009
0,78686;;;-3,947089494
0,78736;;;-4,557478309
0,78786;;;-4,862672717
0,78836;;;-6,083450348
0,78886;;;-3,336700678
0,78936;;;5,208742737
0,78986;;;14,97496378
0,79036;;;18,02690786
0,79086;;;14,05938056
0,79136;;;9,481464445
0,79186;;;8,565881222
0,79236;;;9,481464445
0,79286;;;7,650297999
0,79336;;;2,767187476
0,79386;;;-2,726311863
0,79436;;;-7,304227978
0,79486;;;-13,10292172
0,79536;;;-21,95355955
0,79586;;;-32,024975
0,79636;;;-33,85614145
0,79686;;;-22,86914277
0,79736;;;-6,388644755
0,79786;;;2,767187476
0,79836;;;-0,8951454167
0,79886;;;-12,1873385
0,79936;;;-21,03797632
0,79986;;;-22,86914277
0,80036;;;-18,59642106
0,80086;;;-13,40811613
0,80136;;;-12,1873385
0,80186;;;-16,1548658
0,80236;;;-21,64836514
0,80286;;;-24,70030922
0,80336;;;-24,39511481
0,80386;;;-22,86914277
0,80436;;;-18,59642106
0,80486;;;-10,05097765
0,80536;;;1,546409845
0,80586;;;12,83860293
0,80636;;;21,38404635
0,80686;;;25,65676805
0,80736;;;23,5204072
0,80786;;;16,19574141
0,80836;;;14,05938056
0,80886;;;28,09832331
0,80936;;;53,12426475
0,80986;;;68,38398513
0,81036;;;59,2281529
0,81086;;;32,98143384
0,81136;;;10,09185326
0,81186;;;2,15679866
0,81236;;;4,293159514
0,81286;;;7,039909184
0,81336;;;8,565881222
0,81386;;;10,39704767
0,81436;;;12,83860293
0,81486;;;14,36457497
0,81536;;;13,75418615
0,81585;;;10,39704767
0,81635;;;6,734714776
0,81685;;;3,987965107
0,81735;;;3,072381883
0,81785;;;3,682770699
0,81835;;;3,682770699
0,81885;;;2,767187476
0,81935;;;1,241215437
0,81985;;;0,9360210295
0,82035;;;2,15679866
0,82085;;;3,377576291
0,82135;;;2,461993068
0,82185;;;0,02043780641
0,82235;;;-1,200339824
0,82285;;;-0,2847566013
0,82335;;;0,3256322141
0,82385;;;-0,589951009
0,82435;;;-3,641895086
0,82485;;;-5,77825594
0,82535;;;-6,388644755
0,82585;;;-6,693839163
0,82635;;;-7,304227978
0,82685;;;-6,999033571
0,82735;;;-6,999033571
0,82785;;;-6,999033571
0,82835;;;-7,304227978
0,82885;;;-6,388644755
0,82935;;;-4,557478309
0,82985;;;-3,641895086
0,83035;;;-4,252283901
0,83085;;;-5,167867125
0,83135;;;-5,77825594
0,83185;;;-5,77825594
0,83235;;;-5,473061532
0,83285;;;-4,862672717
0,83335;;;-4,862672717
0,83385;;;-5,473061532
0,83435;;;-5,167867125
0,83485;;;-2,726311863
0,83535;;;0,9360210295
0,83585;;;3,987965107
0,83635;;;5,208742737
0,83685;;;4,598353922
0,83735;;;3,987965107
0,83785;;;3,682770699
0,83835;;;3,377576291
0,83885;;;2,15679866
0,83935;;;-0,2847566013
0,83985;;;-3,641895086
0,84035;;;-6,999033571
0,84085;;;-11,57694969
0,84135;;;-18,29122666
0,84185;;;-22,86914277
0,84235;;;-17,37564343
0,84285;;;-0,2847566013
0,84335;;;19,24768549
0,84385;;;29,92948976
0,84435;;;27,79312891
0,84485;;;18,94249108
0,84535;;;10,39704767
0,84585;;;4,293159514
0,84635;;;-0,589951009
0,84685;;;-6,388644755
0,84735;;;-11,57694969
0,84785;;;-15,54447699
0,84835;;;-21,34317073
0,84885;;;-30,49900296
0,84935;;;-38,43405756
0,84985;;;-37,21327993
0,85035;;;-25,92108685
0,85085;;;-14,62889376
0,85135;;;-12,1873385
0,85185;;;-16,1548658
0,85235;;;-17,07044902
0,85285;;;-12,1873385
0,85335;;;-7,609422386
0,85385;;;-7,914616794
0,85435;;;-8,830200017
0,85485;;;-6,388644755
0,85535;;;-2,421117455
0,85585;;;-0,8951454167
0,85635;;;-0,8951454167
0,85685;;;0,02043780641
0,85735;;;0,9360210295
0,85785;;;0,6308266218
0,85835;;;-0,2847566013
0,85885;;;-0,2847566013
0,85935;;;0,02043780641
0,85985;;;0,02043780641
0,86035;;;-0,2847566013
0,86085;;;0,3256322141
0,86135;;;1,851604253
0,86185;;;1,851604253
0,86235;;;1,546409845
0,86285;;;2,767187476
0,86335;;;5,208742737
0,86385;;;6,12432596
0,86435;;;5,208742737
0,86485;;;4,90354833
0,86535;;;6,734714776
0,86585;;;9,176270037
0,86635;;;9,786658853
0,86685;;;9,176270037
0,86735;;;9,176270037
0,86785;;;9,176270037
0,86835;;;7,650297999
0,86885;;;4,90354833
0,86935;;;2,767187476
0,86985;;;2,15679866
0,87035;;;1,241215437
0,87085;;;-0,589951009
0,87135;;;-2,726311863
0,87184;;;-2,115923047
0,87234;;;0,3256322141
0,87284;;;2,15679866
0,87334;;;2,767187476
0,87384;;;3,682770699
0,87434;;;4,293159514
0,87484;;;3,682770699
0,87534;;;1,546409845
0,87584;;;0,02043780641
0,87634;;;0,02043780641
0,87684;;;0,3256322141
0,87734;;;0,6308266218
0,87784;;;1,851604253
0,87834;;;3,377576291
0,87884;;;2,767187476
0,87934;;;0,6308266218
0,87984;;;0,3256322141
0,88034;;;3,682770699
0,88084;;;7,345103591
0,88134;;;7,650297999
0,88184;;;5,208742737
0,88234;;;3,377576291
0,88284;;;2,461993068
0,88334;;;2,15679866
0,88384;;;3,377576291
0,88434;;;5,819131553
0,88484;;;3,682770699
0,88534;;;-7,304227978
0,88584;;;-20,42758751
0,88634;;;-20,42758751
0,88684;;;-2,421117455
0,88734;;;17,72171345
0,88784;;;22,91001838
0,88834;;;11,00743648
0,88884;;;-3,641895086
0,88934;;;-9,440588832
0,88984;;;-7,609422386
0,89034;;;-3,641895086
0,89084;;;0,02043780641
0,89134;;;3,072381883
0,89184;;;5,513937145
0,89234;;;5,513937145
0,89284;;;4,90354833
0,89334;;;5,208742737
0,89384;;;5,208742737
0,89434;;;3,682770699
0,89484;;;2,15679866
0,89534;;;1,851604253
0,89584;;;3,072381883
0,89634;;;3,072381883
0,89684;;;2,15679866
0,89734;;;1,241215437
0,89784;;;0,9360210295
0,89834;;;1,241215437
0,89884;;;2,15679866
0,89934;;;3,072381883
0,89984;;;3,072381883
0,90034;;;2,15679866
0,90084;;;1,546409845
0,90134;;;1,851604253
0,90184;;;1,851604253
0,90234;;;1,241215437
0,90284;;;0,9360210295
0,90334;;;0,9360210295
0,90384;;;0,02043780641
0,90434;;;-3,947089494
0,90484;;;-8,219811202
0,90534;;;-9,440588832
0,90584;;;-7,609422386
0,90634;;;-4,557478309
0,90684;;;-2,726311863
0,90734;;;-1,505534232
0,90784;;;0,9360210295
0,90834;;;5,819131553
0,90884;;;12,53340852
0,90934;;;19,85807431
0,90984;;;25,04637924
0,91034;;;25,65676805
0,91084;;;22,29962957
0,91134;;;18,02690786
0,91184;;;15,28015819
0,91234;;;12,22821411
0,91284;;;6,734714776
0,91334;;;-0,8951454167
0,91384;;;-6,693839163
0,91434;;;-10,66136646
0,91484;;;-16,1548658
0,91534;;;-22,86914277
0,91584;;;-24,0899204
0,91634;;;-14,93408817
0,91684;;;-1,505534232
0,91734;;;4,293159514
0,91784;;;0,3256322141
0,91834;;;-4,862672717
0,91884;;;-2,115923047
0,91934;;;5,819131553
0,91984;;;10,70224208
0,92034;;;9,176270037
0,92084;;;6,429520368
0,92134;;;6,12432596
0,92184;;;6,12432596
0,92234;;;2,461993068
0,92284;;;-2,726311863
0,92334;;;-6,693839163
0,92384;;;-10,05097765
0,92434;;;-16,46006021
0,92484;;;-22,56394836
0,92534;;;-18,59642106
0,92584;;;-0,2847566013
0,92634;;;21,99443516
0,92684;;;34,20221147
0,92734;;;30,84507298
0,92784;;;20,16326871
0,92833;;;9,786658853
0,92883;;;2,461993068
0,92933;;;-2,421117455
0,92983;;;-6,083450348
0,93033;;;-11,57694969
0,93083;;;-22,56394836
0,93133;;;-35,9925023
0,93183;;;-40,87561283
0,93233;;;-30,19380856
0,93283;;;-11,57694969
0,93333;;;0,3256322141
0,93383;;;1,241215437
0,93433;;;-0,8951454167
0,93483;;;0,3256322141
0,93533;;;6,12432596
0,93583;;;10,70224208
0,93633;;;11,00743648
0,93683;;;8,260686814
0,93733;;;5,819131553
0,93783;;;5,208742737
0,93833;;;4,293159514
0,93883;;;1,851604253
0,93933;;;-0,589951009
0,93983;;;-1,81072864
0,94033;;;-1,200339824
0,94083;;;-0,2847566013
0,94133;;;-1,200339824
0,94183;;;-2,726311863
0,94233;;;-3,641895086
0,94283;;;-3,336700678
0,94333;;;-2,726311863
0,94383;;;-2,115923047
0,94433;;;-2,115923047
0,94483;;;-3,031506271
0,94533;;;-3,947089494
0,94583;;;-4,557478309
0,94633;;;-4,557478309
0,94683;;;-3,947089494
0,94733;;;-2,726311863
0,94783;;;-1,200339824
0,94833;;;-0,8951454167
0,94883;;;-0,8951454167
0,94933;;;-0,589951009
0,94983;;;0,02043780641
0,95033;;;0,6308266218
0,95083;;;0,6308266218
0,95133;;;0,3256322141
0,95183;;;0,9360210295
0,95233;;;1,546409845
0,95283;;;1,241215437
0,95333;;;0,02043780641
0,95383;;;-3,031506271
0,95433;;;-4,557478309
0,95483;;;-1,81072864
0,95533;;;2,461993068
0,95583;;;2,461993068
0,95633;;;-5,167867125
0,95683;;;-15,84967139
0,95733;;;-21,34317073
0,95783;;;-19,20680988
0,95833;;;-14,01850495
0,95883;;;-9,135394425
0,95933;;;-3,641895086
0,95983;;;2,461993068
0,96033;;;7,955492407
0,96083;;;10,09185326
0,96133;;;10,09185326
0,96183;;;10,70224208
0,96233;;;14,97496378
0,96283;;;21,68924075
0,96333;;;26,87754568
0,96383;;;26,57235128
0,96433;;;21,68924075
0,96483;;;15,89054701
0,96533;;;10,70224208
0,96583;;;6,429520368
0,96633;;;4,598353922
0,96683;;;5,513937145
0,96733;;;4,598353922
0,96783;;;-2,421117455
0,96833;;;-10,35617206
0,96883;;;-10,35617206
0,96933;;;-3,336700678
0,96983;;;0,9360210295
0,97033;;;0,6308266218
0,97083;;;1,241215437
0,97133;;;4,293159514
0,97183;;;4,598353922
0,97233;;;2,15679866
0,97283;;;3,072381883
0,97333;;;4,598353922
0,97383;;;-4,252283901
0,97433;;;-22,86914277
0,97483;;;-30,80419737
0,97533;;;-16,76525462
0,97583;;;4,90354833
0,97633;;;14,97496378
0,97683;;;9,481464445
0,97733;;;-2,726311863
0,97783;;;-16,76525462
0,97833;;;-20,42758751
0,97883;;;2,461993068
0,97933;;;51,2930983
0,97983;;;94,63070419
0,98033;;;102,8709532
0,98083;;;84,55928874
0,98133;;;66,85801309
0,98183;;;57,09179205
0,98233;;;41,52687725
0,98283;;;17,41651905
0,98333;;;-1,505534232
0,98383;;;-17,68083784
0,98432;;;-51,8626115
0,98482;;;-106,1872161
0,98532;;;-145,5572947
0,98582;;;-133,3495184
0,98632;;;-76,88855293
0,98682;;;-19,81719869
0,98732;;;1,241215437
0,98782;;;-10,96656087
0,98832;;;-31,10939178
0,98882;;;-36,90808553
0,98932;;;-28,97303093
0,98982;;;-19,20680988
0,99032;;;-14,93408817
0,99082;;;-14,32369936
0,99132;;;-12,49253291
0,99182;;;-10,35617206
0,99232;;;-10,66136646
0,99282;;;-11,27175528
0,99332;;;-10,66136646
0,99382;;;-9,135394425
0,99432;;;-9,135394425
0,99482;;;-8,830200017
0,99532;;;-6,388644755
0,99582;;;-3,641895086
0,99632;;;-3,336700678
0,99682;;;-4,252283901
0,99732;;;-3,641895086
0,99782;;;-1,200339824
0,99832;;;0,02043780641
0,99882;;;0,02043780641
0,99932;;;2,461993068
0,99982;;;5,819131553
1,00032;;;6,429520368
1,00082;;;4,90354833
1,00132;;;4,293159514
1,00182;;;5,819131553
1,00232;;;7,039909184
1,00282;;;6,734714776
1,00332;;;6,734714776
1,00382;;;6,734714776
1,00432;;;3,682770699
1,00482;;;-2,726311863
1,00532;;;-7,914616794
1,00582;;;-6,693839163
1,00632;;;-0,2847566013
1,00682;;;5,513937145
1,00732;;;7,650297999
1,00782;;;6,734714776
1,00832;;;6,12432596
1,00882;;;6,734714776
1,00932;;;7,345103591
1,00982;;;7,039909184
1,01032;;;5,819131553
1,01082;;;5,208742737
1,01132;;;5,819131553
1,01182;;;6,734714776
1,01232;;;7,650297999
1,01282;;;8,87107563
1,01332;;;9,786658853
1,01382;;;10,39704767
1,01432;;;10,39704767
1,01482;;;11,31263089
1,01532;;;12,53340852
1,01582;;;13,14379734
1,01632;;;12,22821411
1,01682;;;10,70224208
1,01732;;;10,39704767
1,01782;;;9,786658853
1,01832;;;7,650297999
1,01882;;;4,598353922
1,01932;;;1,851604253
1,01982;;;0,02043780641
1,02032;;;-2,726311863
1,02082;;;-4,557478309
1,02132;;;-3,641895086
1,02182;;;0,02043780641
1,02232;;;4,598353922
1,02282;;;7,039909184
1,02332;;;7,345103591
1,02382;;;6,429520368
1,02432;;;3,987965107
1,02482;;;0,3256322141
1,02532;;;-1,200339824
1,02582;;;0,02043780641
1,02632;;;3,072381883
1,02682;;;4,293159514
1,02732;;;3,682770699
1,02782;;;3,987965107
1,02832;;;6,429520368
1,02882;;;8,260686814
1,02932;;;7,650297999
1,02982;;;5,819131553
1,03032;;;4,293159514
1,03082;;;4,293159514
1,03132;;;4,598353922
1,03182;;;3,682770699
1,03232;;;2,15679866
1,03282;;;0,3256322141
1,03332;;;-0,589951009
1,03382;;;-0,589951009
1,03432;;;0,3256322141
1,03482;;;1,546409845
1,03532;;;2,15679866
1,03582;;;2,461993068
1,03632;;;1,546409845
1,03682;;;-0,589951009
1,03732;;;-5,473061532
1,03782;;;-10,66136646
1,03832;;;-13,10292172
1,03882;;;-11,57694969
1,03932;;;-7,304227978
1,03982;;;-2,421117455
1,04032;;;0,6308266218
1,04081;;;2,15679866
1,04131;;;2,767187476
1,04181;;;4,293159514
1,04231;;;6,734714776
1,04281;;;9,176270037
1,04331;;;11,00743648
1,04381;;;12,83860293
1,04431;;;14,05938056
1,04481;;;13,44899175
1,04531;;;10,09185326
1,04581;;;5,513937145
1,04631;;;2,15679866
1,04681;;;1,851604253
1,04731;;;3,987965107
1,04781;;;5,208742737
1,04831;;;3,377576291
1,04881;;;0,3256322141
1,04931;;;-1,200339824
1,04981;;;-0,8951454167
1,05031;;;-0,589951009
1,05081;;;-1,200339824
1,05131;;;-1,81072864
1,05181;;;-2,115923047
1,05231;;;-1,81072864
1,05281;;;-3,031506271
1,05331;;;-5,473061532
1,05381;;;-8,830200017
1,05431;;;-13,10292172
1,05481;;;-17,07044902
1,05531;;;-18,90161547
1,05581;;;-18,29122666
1,05631;;;-15,84967139
1,05681;;;-12,1873385
1,05731;;;-8,525005609
1,05781;;;-5,473061532
1,05831;;;-3,031506271
1,05881;;;-0,8951454167
1,05931;;;2,15679866
1,05981;;;7,039909184
1,06031;;;12,53340852
1,06081;;;18,33210227
1,06131;;;23,82560161
1,06181;;;27,4879345
1,06231;;;26,26715687
1,06281;;;20,77365753
1,06331;;;14,66976938
1,06381;;;10,70224208
1,06431;;;8,565881222
1,06481;;;6,429520368
1,06531;;;4,293159514
1,06581;;;2,767187476
1,06631;;;2,461993068
1,06681;;;3,987965107
1,06731;;;5,819131553
1,06781;;;6,429520368
1,06831;;;5,208742737
1,06881;;;3,987965107
1,06931;;;2,767187476
1,06981;;;0,6308266218
1,07031;;;-3,336700678
1,07081;;;-7,914616794
1,07131;;;-9,440588832
1,07181;;;-7,914616794
1,07231;;;-4,252283901
1,07281;;;0,3256322141
1,07331;;;6,734714776
1,07381;;;12,83860293
1,07431;;;16,80613023
1,07481;;;18,02690786
1,07531;;;15,89054701
1,07581;;;9,481464445
1,07631;;;0,3256322141
1,07681;;;-7,304227978
1,07731;;;-13,71331054
1,07781;;;-23,17433718
1,07831;;;-38,12886316
1,07881;;;-49,72625065
1,07931;;;-47,5898898
1,07981;;;-33,24575263
1,08031;;;-19,20680988
1,08081;;;-12,49253291
1,08131;;;-9,135394425
1,08181;;;-3,641895086
1,08231;;;0,02043780641
1,08281;;;-2,115923047
1,08331;;;-7,304227978
1,08381;;;-8,219811202
1,08431;;;-4,252283901
1,08481;;;-1,200339824
1,08531;;;-1,200339824
1,08581;;;-1,505534232
1,08631;;;0,3256322141
1,08681;;;1,241215437
1,08731;;;-0,589951009
1,08781;;;-3,336700678
1,08831;;;-3,947089494
1,08881;;;-3,336700678
1,08931;;;-2,726311863
1,08981;;;-1,81072864
1,09031;;;-0,589951009
1,09081;;;-0,2847566013
1,09131;;;-1,505534232
1,09181;;;-1,200339824
1,09231;;;0,6308266218
1,09281;;;1,241215437
1,09331;;;-0,589951009
1,09381;;;-1,505534232
1,09431;;;3,072381883
1,09481;;;9,786658853
1,09531;;;12,53340852
1,09581;;;11,00743648
1,09631;;;9,786658853
1,09680;;;9,176270037
1,09730;;;7,955492407
1,09780;;;8,87107563
1,09830;;;11,92301971
1,09880;;;7,345103591
1,09930;;;-14,62889376
1,09980;;;-43,9275569
1,10030;;;-53,69377795
1,10080;;;-32,94055823
1,10130;;;-2,115923047
1,10180;;;11,00743648
1,10230;;;3,682770699
1,10280;;;-6,388644755
1,10330;;;-6,999033571
1,10380;;;0,3256322141
1,10430;;;9,481464445
1,10480;;;17,41651905
1,10530;;;22,91001838
1,10580;;;24,13079601
1,10630;;;20,46846312
1,10680;;;13,75418615
1,10730;;;6,734714776
1,10780;;;1,851604253
1,10830;;;2,461993068
1,10880;;;10,09185326
1,10930;;;20,77365753
1,10980;;;28,40351772
1,11030;;;30,23468417
1,11080;;;28,09832331
1,11130;;;24,43599042
1,11180;;;19,85807431
1,11230;;;14,97496378
1,11280;;;11,00743648
1,11330;;;6,734714776
1,11380;;;1,546409845
1,11430;;;-3,336700678
1,11480;;;-6,388644755
1,11530;;;-9,135394425
1,11580;;;-13,71331054
1,11630;;;-19,20680988
1,11680;;;-21,03797632
1,11730;;;-18,90161547
1,11780;;;-16,46006021
1,11830;;;-16,1548658
1,11880;;;-16,1548658
1,11930;;;-14,01850495
1,11980;;;-11,57694969
1,12030;;;-13,71331054
1,12080;;;-20,1223931
1,12130;;;-25,92108685
1,12180;;;-26,53147566
1,12230;;;-22,56394836
1,12280;;;-17,07044902
1,12330;;;-12,1873385
1,12380;;;-8,830200017
1,12430;;;-6,693839163
1,12480;;;-5,473061532
1,12530;;;-4,557478309
1,12580;;;-4,252283901
1,12630;;;-5,167867125
1,12680;;;-8,830200017
1,12730;;;-14,62889376
1,12780;;;-21,95355955
1,12830;;;-30,19380856
1,12880;;;-35,38211349
1,12930;;;-32,63536382
1,12980;;;-21,95355955
1,13030;;;-9,135394425
1,13080;;;0,02043780641
1,13130;;;7,345103591
1,13180;;;15,5853526
1,13230;;;23,82560161
1,13280;;;27,4879345
1,13330;;;26,57235128
1,13380;;;25,35157365
1,13430;;;24,74118483
1,13480;;;20,46846312
1,13530;;;10,70224208
1,13580;;;1,546409845
1,13630;;;0,9360210295
1,13680;;;10,09185326
1,13730;;;22,60482398
1,13780;;;31,4554618
1,13830;;;34,50740588
1,13880;;;32,98143384
1,13930;;;31,15026739
1,13980;;;32,98143384
1,14030;;;37,86454436
1,14080;;;40,30609962
1,14130;;;36,33857232
1,14180;;;28,40351772
1,14230;;;21,99443516
1,14280;;;19,24768549
1,14330;;;15,89054701
1,14380;;;8,260686814
1,14430;;;-3,947089494
1,14480;;;-18,59642106
1,14530;;;-34,46653026
1,14580;;;-49,42105624
1,14630;;;-57,96649966
1,14680;;;-53,99897236
1,14730;;;-39,65483519
1,14780;;;-28,36264211
1,14830;;;-32,024975
1,14880;;;-44,84314013
1,14930;;;-47,8950842
1,14980;;;-28,0574477
1,15030;;;6,12432596
1,15080;;;35,72818351
1,15130;;;47,63076541
1,15180;;;44,27362692
1,15230;;;34,20221147
1,15280;;;26,26715687
1,15329;;;26,57235128
1,15379;;;33,59182265
1,15429;;;38,78012758
1,15479;;;33,89701706
1,15529;;;24,74118483
1,15579;;;24,13079601
1,15629;;;34,20221147
1,15679;;;42,13726607
1,15729;;;37,55934995
1,15779;;;26,26715687
1,15829;;;21,99443516
1,15879;;;27,4879345
1,15929;;;32,37104502
1,15979;;;29,01390654
1,16029;;;18,33210227
1,16079;;;3,682770699
1,16129;;;-13,71331054
1,16179;;;-34,16133586
1,16229;;;-55,21974999
1,16279;;;-74,44699767
1,16329;;;-91,2326901
1,16379;;;-104,0508552
1,16429;;;-112,2911042
1,16479;;;-116,2586315
1,16529;;;-115,0378539
1,16579;;;-106,7976049
1,16629;;;-90,62230128
1,16679;;;-71,08985919
1,16729;;;-53,69377795
1,16779;;;-40,26522401
1,16829;;;-29,27822533
1,16879;;;-20,1223931
1,16929;;;-15,23928258
1,16979;;;-12,1873385
1,17029;;;-7,609422386
1,17079;;;-0,8951454167
1,17129;;;0,9360210295
1,17179;;;-3,641895086
1,17229;;;-9,74578324
1,17279;;;-10,35617206
1,17329;;;-6,083450348
1,17379;;;-2,115923047
1,17429;;;0,02043780641
1,17479;;;2,767187476
1,17529;;;8,87107563
1,17579;;;15,28015819
1,17629;;;20,46846312
1,17679;;;23,82560161
1,17729;;;25,35157365
1,17779;;;22,91001838
1,17829;;;16,50093582
1,17879;;;9,176270037
1,17929;;;5,819131553
1,17979;;;7,650297999
1,18029;;;12,53340852
1,18079;;;17,11132464
1,18129;;;19,5528799
1,18179;;;20,77365753
1,18229;;;22,29962957
1,18279;;;24,13079601
1,18329;;;24,13079601
1,18379;;;22,91001838
1,18429;;;24,43599042
1,18479;;;28,70871213
1,18529;;;30,53987858
1,18579;;;27,4879345
1,18629;;;23,21521279
1,18679;;;22,91001838
1,18729;;;24,74118483
1,18779;;;24,13079601
1,18829;;;23,21521279
1,18879;;;24,74118483
1,18929;;;22,91001838
1,18979;;;11,6178253
1,19029;;;-1,81072864
1,19079;;;-6,693839163
1,19129;;;-6,388644755
1,19179;;;-12,49253291
1,19229;;;-19,20680988
1,19279;;;-7,914616794
1,19329;;;21,99443516
1,19379;;;47,63076541
1,19429;;;54,95543119
1,19479;;;57,70218086
1,19529;;;65,33204105
1,19579;;;60,44893053
1,19629;;;35,4229891
1,19679;;;20,77365753
1,19729;;;47,325571
1,19779;;;90,9683713
1,19829;;;99,20862031
1,19879;;;64,11126342
1,19929;;;29,31910095
1,19979;;;25,35157365
1,20029;;;34,50740588
1,20079;;;32,06585062
1,20129;;;18,94249108
1,20179;;;4,598353922
1,20229;;;-9,440588832
1,20279;;;-15,84967139
1,20329;;;0,9360210295
1,20379;;;36,64376673
1,20429;;;57,70218086
1,20479;;;47,63076541
1,20529;;;25,35157365
1,20579;;;10,70224208
1,20629;;;-3,641895086
1,20679;;;-26,53147566
1,20729;;;-43,62236249
1,20779;;;-50,33663946
1,20829;;;-72,31063682
1,20879;;;-121,1417421
1,20928;;;-154,7131269
1,20978;;;-123,8884917
1,21028;;;-46,67430657
1,21078;;;5,819131553
1,21128;;;0,3256322141
1,21178;;;-29,58341974
1,21228;;;-42,40158486
1,21278;;;-35,68730789
1,21328;;;-29,58341974
1,21378;;;-29,27822533
1,21428;;;-27,75225329
1,21478;;;-25,31069803
1,21528;;;-25,92108685
1,21578;;;-27,14186448
1,21628;;;-25,00550363
1,21678;;;-22,56394836
1,21728;;;-25,00550363
1,21778;;;-28,97303093
1,21828;;;-28,66783652
1,21878;;;-24,39511481
1,21928;;;-21,03797632
1,21978;;;-19,20680988
1,22028;;;-17,07044902
1,22078;;;-12,79772732
1,22128;;;-6,083450348
1,22178;;;0,6308266218
1,22228;;;5,819131553
1,22278;;;8,565881222
1,22328;;;11,6178253
1,22378;;;15,89054701
1,22428;;;18,02690786
1,22478;;;14,36457497
1,22528;;;9,481464445
1,22578;;;7,650297999
1,22628;;;6,734714776
1,22678;;;3,377576291
1,22728;;;0,3256322141
1,22778;;;3,072381883
1,22828;;;10,70224208
1,22878;;;19,24768549
1,22928;;;31,15026739
1,22978;;;50,98790389
1,23028;;;70,82554039
1,23078;;;75,70865092
1,23128;;;65,02684665
1,23178;;;56,48140323
1,23228;;;63,1956802
1,23278;;;76,31903973
1,23328;;;78,76059499
1,23378;;;65,94242987
1,23428;;;49,46193185
1,23478;;;36,94896114
1,23528;;;27,79312891
1,23578;;;16,80613023
1,23628;;;2,15679866
1,23678;;;-13,40811613
1,23728;;;-28,36264211
1,23778;;;-40,87561283
1,23828;;;-50,64183387
1,23878;;;-59,18727729
1,23928;;;-66,20674866
1,23978;;;-67,7327207
1,24028;;;-59,18727729
1,24078;;;-42,70677927
1,24128;;;-27,14186448
1,24178;;;-20,42758751
1,24228;;;-22,56394836
1,24278;;;-27,44705889
1,24328;;;-29,27822533
1,24378;;;-27,44705889
1,24428;;;-23,78472599
1,24478;;;-18,90161547
1,24528;;;-15,84967139
1,24578;;;-16,76525462
1,24628;;;-20,1223931
1,24678;;;-18,59642106
1,24728;;;-8,219811202
1,24778;;;4,598353922
1,24828;;;12,22821411
1,24878;;;15,5853526
1,24928;;;20,46846312
1,24978;;;22,91001838
1,25028;;;12,22821411
1,25078;;;-7,304227978
1,25128;;;-16,1548658
1,25178;;;-2,726311863
1,25228;;;15,89054701
1,25278;;;17,11132464
1,25328;;;2,461993068
1,25378;;;-7,914616794
1,25428;;;-6,388644755
1,25478;;;-2,115923047
1,25528;;;0,02043780641
1,25578;;;9,481464445
1,25628;;;26,57235128
1,25678;;;35,4229891
1,25728;;;31,15026739
1,25778;;;32,37104502
1,25828;;;56,17620882
1,25878;;;87,91642722
1,25928;;;95,85148182
1,25978;;;72,65670684
1,26028;;;40,30609962
1,26078;;;16,80613023
1,26128;;;-4,252283901
1,26178;;;-32,33016941
1,26228;;;-53,99897236
1,26278;;;-49,11586183
1,26328;;;-19,51200429
1,26378;;;13,44899175
1,26428;;;35,72818351
1,26478;;;50,37751508
1,26528;;;61,36451375
1,26577;;;63,1956802
1,26627;;;52,81907034
1,26677;;;36,33857232
1,26727;;;19,5528799
1,26777;;;-3,947089494
1,26827;;;-38,73925197
1,26877;;;-73,83660886
1,26927;;;-93,06385654
1,26977;;;-97,33657825
1,27027;;;-97,03138384
1,27077;;;-92,45346773
1,27127;;;-76,27816412
1,27177;;;-53,99897236
1,27227;;;-44,23275131
1,27277;;;-52,16780591
1,27327;;;-60,71324933
1,27377;;;-56,13533321
1,27427;;;-46,97950098
1,27477;;;-43,31716809
1,27527;;;-34,77172467
1,27577;;;-4,862672717
1,27627;;;39,69571081
1,27677;;;72,96190125
1,27727;;;80,59176144
1,27777;;;72,65670684
1,27827;;;60,75412494
1,27877;;;47,63076541
1,27927;;;32,98143384
1,27977;;;21,99443516
1,28027;;;11,31263089
1,28077;;;-8,219811202
1,28127;;;-35,68730789
1,28177;;;-51,8626115
1,28227;;;-45,14833453
1,28277;;;-28,0574477
1,28327;;;-20,42758751
1,28377;;;-23,78472599
1,28427;;;-26,22628126
1,28477;;;-28,0574477
1,28527;;;-41,48600164
1,28577;;;-64,98597103
1,28627;;;-75,97296971
1,28677;;;-59,4924717
1,28727;;;-29,88861415
1,28777;;;-14,32369936
1,28827;;;-20,42758751
1,28877;;;-32,33016941
1,28927;;;-33,55094704
1,28977;;;-24,0899204
1,29027;;;-11,88214409
1,29077;;;-2,421117455
1,29127;;;3,072381883
1,29177;;;5,513937145
1,29227;;;10,09185326
1,29277;;;22,29962957
1,29327;;;37,55934995
1,29377;;;45,18921015
1,29427;;;43,3580437
1,29477;;;41,83207166
1,29527;;;46,71518218
1,29577;;;49,76712626
1,29627;;;44,88401574
1,29677;;;41,52687725
1,29727;;;52,20868152
1,29777;;;68,99437395
1,29827;;;72,96190125
1,29877;;;59,2281529
1,29927;;;40,61129403
1,29977;;;24,13079601
1,30027;;;3,377576291
1,30077;;;-23,47953159
1,30127;;;-44,53794572
1,30177;;;-50,94702828
1,30227;;;-51,25222269
1,30277;;;-55,21974999
1,30327;;;-57,35611084
1,30377;;;-46,97950098
1,30427;;;-27,75225329
1,30477;;;-14,01850495
1,30527;;;-6,999033571
1,30577;;;3,987965107
1,30627;;;21,38404635
1,30677;;;32,37104502
1,30727;;;31,76065621
1,30777;;;28,70871213
1,30827;;;29,62429535
1,30877;;;23,5204072
1,30927;;;0,3256322141
1,30977;;;-27,44705889
1,31027;;;-34,46653026
1,31077;;;-13,71331054
1,31127;;;14,36457497
1,31177;;;29,31910095
1,31227;;;30,84507298
1,31277;;;35,72818351
1,31327;;;52,81907034
1,31377;;;72,96190125
1,31427;;;78,76059499
1,31477;;;67,1632075
1,31527;;;53,12426475
1,31577;;;52,81907034
1,31627;;;61,36451375
1,31677;;;58,92295849
1,31727;;;38,78012758
1,31777;;;15,89054701
1,31827;;;1,851604253
1,31877;;;-10,05097765
1,31927;;;-26,22628126
1,31977;;;-33,24575263
1,32027;;;-17,37564343
1,32077;;;7,345103591
1,32127;;;17,11132464
1,32176;;;7,345103591
1,32226;;;-6,999033571
1,32276;;;-21,64836514
1,32326;;;-41,48600164
1,32376;;;-60,10286051
1,32426;;;-65,29116544
1,32476;;;-67,12233189
1,32526;;;-88,79113483
1,32576;;;-123,8884917
1,32626;;;-133,6547128
1,32676;;;-98,25216147
1,32726;;;-47,8950842
1,32776;;;-21,64836514
1,32826;;;-19,51200429
1,32876;;;-17,07044902
1,32926;;;-6,083450348
1,32976;;;0,6308266218
1,33026;;;0,6308266218
1,33076;;;2,461993068
1,33126;;;10,09185326
1,33176;;;13,44899175
1,33226;;;8,87107563
1,33276;;;1,546409845
1,33326;;;-4,557478309
1,33376;;;-12,49253291
1,33426;;;-18,29122666
1,33476;;;-13,71331054
1,33526;;;2,767187476
1,33576;;;19,85807431
1,33626;;;26,57235128
1,33676;;;21,99443516
1,33726;;;13,44899175
1,33776;;;7,955492407
1,33826;;;10,39704767
1,33876;;;20,16326871
1,33926;;;27,79312891
1,33976;;;24,74118483
1,34026;;;15,89054701
1,34076;;;14,05938056
1,34126;;;21,99443516
1,34176;;;30,53987858
1,34226;;;35,11779469
1,34276;;;41,52687725
1,34326;;;47,93595982
1,34376;;;44,27362692
1,34426;;;29,92948976
1,34476;;;19,5528799
1,34526;;;19,24768549
1,34576;;;15,28015819
1,34626;;;-0,589951009
1,34676;;;-14,32369936
1,34726;;;-16,1548658
1,34776;;;-20,73278192
1,34826;;;-37,51847434
1,34876;;;-37,82366875
1,34926;;;8,87107563
1,34976;;;81,50734466
1,35026;;;125,150145
1,35076;;;127,8968946
1,35126;;;132,7800052
1,35176;;;167,877362
1,35226;;;203,5851077
1,35276;;;199,312386
1,35326;;;159,3319186
1,35376;;;112,9423687
1,35426;;;71,43592921
1,35476;;;25,96196246
1,35526;;;-21,03797632
1,35576;;;-59,18727729
1,35626;;;-88,18074602
1,35676;;;-115,0378539
1,35726;;;-135,7910736
1,35776;;;-143,1157394
1,35826;;;-142,810545
1,35876;;;-146,4728779
1,35926;;;-153,7975437
1,35976;;;-154,7131269
1,36026;;;-148,3040443
1,36076;;;-140,3689897
1,36126;;;-131,2131575
1,36176;;;-117,4794092
1,36226;;;-102,2196888
1,36276;;;-88,79113483
1,36326;;;-73,83660886
1,36376;;;-54,30416676
1,36426;;;-35,68730789
1,36476;;;-22,25875396
1,36526;;;-6,083450348
1,36576;;;20,16326871
1,36626;;;45,79959896
1,36676;;;54,95543119
1,36726;;;50,68270948
1,36776;;;45,49440455
1,36826;;;36,94896114
1,36876;;;14,05938056
1,36926;;;-13,10292172
1,36976;;;-18,29122666
1,37026;;;5,208742737
1,37076;;;30,84507298
1,37126;;;33,89701706
1,37176;;;20,77365753
1,37226;;;11,92301971
1,37276;;;11,31263089
1,37326;;;7,650297999
1,37376;;;-0,2847566013
1,37426;;;-3,641895086
1,37476;;;0,02043780641
1,37526;;;3,682770699
1,37576;;;0,6308266218
1,37626;;;-7,304227978
1,37676;;;-16,1548658
1,37726;;;-22,25875396
1,37776;;;-22,25875396
1,37825;;;-17,98603225
1,37875;;;-21,03797632
1,37925;;;-40,87561283
1,37975;;;-64,98597103
1,38025;;;-64,98597103
1,38075;;;-31,10939178
1,38125;;;9,481464445
1,38175;;;24,43599042
1,38225;;;11,31263089
1,38275;;;-5,167867125
1,38325;;;-8,830200017
1,38375;;;-3,031506271
1,38425;;;4,293159514
1,38475;;;13,44899175
1,38525;;;20,16326871
1,38575;;;15,5853526
1,38625;;;3,987965107
1,38675;;;4,293159514
1,38725;;;25,65676805
1,38775;;;51,59829271
1,38825;;;61,36451375
1,38875;;;55,87101442
1,38925;;;50,68270948
1,38975;;;50,98790389
1,39025;;;52,51387593
1,39075;;;54,34504238
1,39125;;;61,05931935
1,39175;;;68,38398513
1,39225;;;66,85801309
1,39275;;;55,56582001
1,39325;;;44,88401574
1,39375;;;39,3905164
1,39425;;;35,4229891
1,39475;;;27,79312891
1,39525;;;16,80613023
1,39575;;;3,682770699
1,39625;;;-11,57694969
1,39675;;;-23,47953159
1,39725;;;-23,47953159
1,39775;;;-12,1873385
1,39825;;;-1,81072864
1,39875;;;-2,726311863
1,39925;;;-13,40811613
1,39975;;;-20,73278192
1,40025;;;-14,01850495
1,40075;;;3,072381883
1,40125;;;15,5853526
1,40175;;;13,75418615
1,40225;;;3,682770699
1,40275;;;0,02043780641
1,40325;;;4,293159514
1,40375;;;7,955492407
1,40425;;;6,734714776
1,40475;;;5,819131553
1,40525;;;5,513937145
1,40575;;;-1,200339824
1,40625;;;-13,40811613
1,40675;;;-14,01850495
1,40725;;;4,90354833
1,40775;;;29,62429535
1,40825;;;39,08532199
1,40875;;;31,15026739
1,40925;;;18,33210227
1,40975;;;6,429520368
1,41025;;;-6,388644755
1,41075;;;-17,07044902
1,41125;;;-14,93408817
1,41175;;;2,767187476
1,41225;;;26,26715687
1,41275;;;40,91648844
1,41325;;;42,13726607
1,41375;;;35,4229891
1,41425;;;31,4554618
1,41475;;;35,72818351
1,41525;;;41,22168285
1,41575;;;34,20221147
1,41625;;;11,31263089
1,41675;;;-14,32369936
1,41725;;;-29,27822533
1,41775;;;-31,41458619
1,41825;;;-30,19380856
1,41875;;;-31,41458619
1,41925;;;-33,24575263
1,41975;;;-35,07691908
1,42025;;;-37,82366875
1,42075;;;-41,18080723
1,42125;;;-44,23275131
1,42175;;;-46,36911216
1,42225;;;-48,50547302
1,42275;;;-49,72625065
1,42325;;;-51,25222269
1,42375;;;-57,35611084
1,42425;;;-66,51194307
1,42475;;;-70,17427596
1,42525;;;-60,71324933
1,42575;;;-40,87561283
1,42625;;;-20,42758751
1,42675;;;-3,031506271
1,42725;;;12,22821411
1,42775;;;21,68924075
1,42825;;;18,94249108
1,42875;;;6,12432596
1,42925;;;-6,083450348
1,42975;;;-13,71331054
1,43025;;;-20,42758751
1,43075;;;-27,14186448
1,43125;;;-25,92108685
1,43175;;;-14,62889376
1,43225;;;-3,947089494
1,43275;;;-5,167867125
1,43325;;;-14,32369936
1,43375;;;-21,03797632
1,43424;;;-21,03797632
1,43474;;;-17,98603225
1,43524;;;-15,54447699
1,43574;;;-16,46006021
1,43624;;;-20,1223931
1,43674;;;-17,98603225
1,43724;;;-1,81072864
1,43774;;;19,85807431
1,43824;;;23,5204072
1,43874;;;0,3256322141
1,43924;;;-23,17433718
1,43974;;;-8,219811202
1,44024;;;48,85154304
1,44074;;;110,5008134
1,44124;;;138,2735045
1,44174;;;128,8124779
1,44224;;;104,3969252
1,44274;;;81,50734466
1,44324;;;61,05931935
1,44374;;;40,61129403
1,44424;;;22,29962957
1,44474;;;8,87107563
1,44524;;;-1,81072864
1,44574;;;-14,32369936
1,44624;;;-28,66783652
1,44674;;;-41,79119605
1,44724;;;-50,64183387
1,44774;;;-52,77819473
1,44824;;;-46,97950098
1,44874;;;-38,12886316
1,44924;;;-33,85614145
1,44974;;;-35,07691908
1,45024;;;-33,24575263
1,45074;;;-20,42758751
1,45124;;;-3,336700678
1,45174;;;4,90354833
1,45224;;;-0,2847566013
1,45274;;;-10,96656087
1,45324;;;-17,07044902
1,45374;;;-18,90161547
1,45424;;;-22,86914277
1,45474;;;-30,49900296
1,45524;;;-36,29769671
1,45574;;;-35,38211349
1,45624;;;-31,41458619
1,45674;;;-30,80419737
1,45724;;;-35,38211349
1,45774;;;-37,51847434
1,45824;;;-29,88861415
1,45874;;;-14,01850495
1,45924;;;1,851604253
1,45974;;;14,05938056
1,46024;;;24,43599042
1,46074;;;34,81260028
1,46124;;;45,79959896
1,46174;;;60,44893053
1,46224;;;79,37098381
1,46274;;;93,40992656
1,46324;;;87,61123282
1,46374;;;61,36451375
1,46424;;;31,4554618
1,46474;;;11,92301971
1,46524;;;0,02043780641
1,46574;;;-6,999033571
1,46624;;;3,987965107
1,46674;;;44,27362692
1,46724;;;96,76706505
1,46774;;;126,9813114
1,46824;;;119,6566456
1,46874;;;90,05278808
1,46924;;;58,92295849
1,46974;;;27,4879345
1,47024;;;-12,79772732
1,47074;;;-59,7976661
1,47124;;;-94,28463417
1,47174;;;-102,2196888
1,47224;;;-89,40152365
1,47274;;;-70,78466478
1,47324;;;-51,8626115
1,47374;;;-28,66783652
1,47424;;;-4,862672717
1,47474;;;1,851604253
1,47524;;;-17,07044902
1,47574;;;-48,20027861
1,47624;;;-67,4275263
1,47674;;;-67,7327207
1,47724;;;-59,18727729
1,47774;;;-47,8950842
1,47824;;;-30,49900296
1,47874;;;-8,525005609
1,47924;;;5,513937145
1,47974;;;4,598353922
1,48024;;;-7,304227978
1,48074;;;-22,86914277
1,48124;;;-39,9600296
1,48174;;;-56,44052762
1,48224;;;-63,15480459
1,48274;;;-54,91455558
1,48324;;;-37,21327993
1,48374;;;-18,90161547
1,48424;;;1,241215437
1,48474;;;29,01390654
1,48524;;;57,70218086
1,48574;;;72,04631802
1,48624;;;67,1632075
1,48674;;;55,87101442
1,48724;;;47,93595982
1,48774;;;35,4229891
1,48824;;;9,176270037
1,48874;;;-16,46006021
1,48924;;;-11,57694969
1,48974;;;30,84507298
1,49024;;;81,50734466
1,49073;;;106,8384805
1,49123;;;101,3449812
1,49173;;;78,76059499
1,49223;;;46,71518218
1,49273;;;9,176270037
1,49323;;;-22,25875396
1,49373;;;-36,60289112
1,49423;;;-42,40158486
1,49473;;;-56,44052762
1,49523;;;-74,75219208
1,49573;;;-76,58335853
1,49623;;;-60,71324933
1,49673;;;-50,33663946
1,49723;;;-57,66130525
1,49773;;;-66,51194307
1,49823;;;-59,18727729
1,49873;;;-45,75872335
1,49923;;;-43,31716809
1,49973;;;-46,97950098
1,50023;;;-40,26522401
1,50073;;;-23,47953159
1,50123;;;-13,10292172
1,50173;;;-14,93408817
1,50223;;;-15,23928258
1,50273;;;-4,557478309
1,50323;;;11,00743648
1,50373;;;21,07885194
1,50423;;;23,5204072
1,50473;;;19,85807431
1,50523;;;11,92301971
1,50573;;;5,819131553
1,50623;;;11,92301971
1,50673;;;28,70871213
1,50723;;;41,52687725
1,50773;;;41,83207166
1,50823;;;38,47493318
1,50873;;;45,49440455
1,50923;;;56,48140323
1,50973;;;56,17620882
1,51023;;;46,40998778
1,51073;;;46,40998778
1,51123;;;62,58529139
1,51173;;;74,79306769
1,51223;;;63,50087461
1,51273;;;39,08532199
1,51323;;;26,26715687
1,51373;;;29,01390654
1,51423;;;29,01390654
1,51473;;;15,89054701
1,51523;;;-1,505534232
1,51573;;;-14,01850495
1,51623;;;-21,03797632
1,51673;;;-22,86914277
1,51723;;;-18,29122666
1,51773;;;-16,46006021
1,51823;;;-31,41458619
1,51873;;;-60,10286051
1,51923;;;-74,44699767
1,51973;;;-55,5249444
1,52023;;;-18,90161547
1,52073;;;5,513937145
1,52123;;;7,955492407
1,52173;;;0,02043780641
1,52223;;;-9,135394425
1,52273;;;-13,71331054
1,52323;;;-7,609422386
1,52373;;;8,260686814
1,52423;;;16,19574141
1,52473;;;-2,421117455
1,52523;;;-39,04444638
1,52573;;;-62,23922136
1,52623;;;-56,74572203
1,52673;;;-38,73925197
1,52723;;;-28,97303093
1,52773;;;-31,10939178
1,52823;;;-35,9925023
1,52873;;;-35,38211349
1,52923;;;-23,17433718
1,52973;;;7,039909184
1,53023;;;50,68270948
1,53073;;;87,000844
1,53123;;;97,07225946
1,53173;;;83,64370552
1,53223;;;65,33204105
1,53273;;;53,42945915
1,53323;;;46,40998778
1,53373;;;39,08532199
1,53423;;;32,37104502
1,53473;;;30,53987858
1,53523;;;32,06585062
1,53573;;;30,23468417
1,53623;;;19,5528799
1,53673;;;-1,200339824
1,53723;;;-26,83667007
1,53773;;;-49,42105624
1,53823;;;-62,84961018
1,53873;;;-66,51194307
1,53923;;;-62,54441577
1,53973;;;-53,38858354
1,54023;;;-41,79119605
1,54073;;;-30,19380856
1,54123;;;-20,1223931
1,54173;;;-8,830200017
1,54223;;;9,786658853
1,54273;;;36,94896114
1,54323;;;64,72165224
1,54373;;;82,72812229
1,54423;;;86,08526078
1,54473;;;76,92942855
1,54523;;;62,89048579
1,54573;;;53,12426475
1,54623;;;50,07232067
1,54672;;;44,88401574
1,54722;;;28,70871213
1,54772;;;3,987965107
1,54822;;;-15,84967139
1,54872;;;-26,53147566
1,54922;;;-36,29769671
1,54972;;;-50,33663946
1,55022;;;-60,40805492
1,55072;;;-61,01844373
1,55122;;;-62,54441577
1,55172;;;-74,44699767
1,55222;;;-86,65477398
1,55272;;;-80,55088583
1,55322;;;-59,18727729
1,55372;;;-39,65483519
1,55422;;;-27,44705889
1,55472;;;-13,40811613
1,55522;;;0,3256322141
1,55572;;;4,90354833
1,55622;;;5,513937145
1,55672;;;18,94249108
1,55722;;;43,96843252
1,55772;;;61,36451375
1,55822;;;71,43592921
1,55872;;;101,6501756
1,55922;;;162,0786683
1,55972;;;217,9292449
1,56022;;;229,5266324
1,56072;;;194,4292755
1,56122;;;138,8838933
1,56172;;;81,20215026
1,56222;;;29,31910095
1,56272;;;-7,914616794
1,56322;;;-29,58341974
1,56372;;;-51,25222269
1,56422;;;-83,2976355
1,56472;;;-112,2911042
1,56522;;;-121,4469365
1,56572;;;-122,0573253
1,56622;;;-137,6222401
1,56672;;;-162,9533759
1,56722;;;-170,5832361
1,56772;;;-152,2715716
1,56822;;;-127,2456302
1,56872;;;-107,4079937
1,56922;;;-82,07685787
1,56972;;;-47,28469539
1,57022;;;-20,1223931
1,57072;;;-14,62889376
1,57122;;;-21,03797632
1,57172;;;-20,73278192
1,57222;;;-9,440588832
1,57272;;;3,072381883
1,57322;;;14,05938056
1,57372;;;25,35157365
1,57422;;;38,16973877
1,57472;;;49,46193185
1,57522;;;54,95543119
1,57572;;;49,76712626
1,57622;;;36,03337792
1,57672;;;23,82560161
1,57722;;;23,5204072
1,57772;;;29,62429535
1,57822;;;25,96196246
1,57872;;;8,87107563
1,57922;;;-7,609422386
1,57972;;;-13,40811613
1,58022;;;-15,23928258
1,58072;;;-22,86914277
1,58122;;;-32,94055823
1,58172;;;-36,29769671
1,58222;;;-33,55094704
1,58272;;;-31,10939178
1,58322;;;-26,83667007
1,58372;;;-16,1548658
1,58422;;;-3,641895086
1,58472;;;2,461993068
1,58522;;;2,15679866
1,58572;;;0,9360210295
1,58622;;;-0,589951009
1,58672;;;-3,031506271
1,58722;;;3,682770699
1,58772;;;29,62429535
1,58822;;;59,2281529
1,58872;;;66,85801309
1,58922;;;48,85154304
1,58972;;;29,62429535
1,59022;;;26,57235128
1,59072;;;29,31910095
1,59122;;;22,29962957
1,59172;;;8,87107563
1,59222;;;-0,8951454167
1,59272;;;-9,135394425
1,59322;;;-19,51200429
1,59372;;;-29,58341974
1,59422;;;-37,21327993
1,59472;;;-51,5574171
1,59522;;;-72,00544241
1,59572;;;-76,88855293
1,59622;;;-49,42105624
1,59672;;;-6,388644755
1,59722;;;21,07885194
1,59772;;;28,70871213
1,59822;;;34,81260028
1,59872;;;45,18921015
1,59922;;;46,10479337
1,59972;;;36,03337792
1,60022;;;39,69571081
1,60072;;;68,99437395
1,60122;;;97,98784268
1,60172;;;94,32550979
1,60222;;;63,80606902
1,60272;;;43,05284929
1,60321;;;49,15673745
1,60371;;;61,66970816
1,60421;;;55,2606256
1,60471;;;32,06585062
1,60521;;;10,70224208
1,60571;;;3,072381883
1,60621;;;10,09185326
1,60671;;;30,23468417
1,60721;;;57,09179205
1,60771;;;73,57229006
1,60821;;;61,66970816
1,60871;;;24,74118483
1,60921;;;-18,29122666
1,60971;;;-56,44052762
1,61021;;;-91,5378845
1,61071;;;-122,6677141
1,61121;;;-139,1482121
1,61171;;;-135,4858792
1,61221;;;-119,0053812
1,61271;;;-99,4729391
1,61321;;;-80,85608023
1,61371;;;-71,08985919
1,61421;;;-79,6353026
1,61471;;;-100,3885223
1,61521;;;-107,7131881
1,61571;;;-83,6028299
1,61621;;;-39,34964079
1,61671;;;-1,200339824
1,61721;;;18,63729668
1,61771;;;25,35157365
1,61821;;;25,65676805
1,61871;;;21,38404635
1,61921;;;14,05938056
1,61971;;;2,461993068
1,62021;;;-17,07044902
1,62071;;;-40,87561283
1,62121;;;-49,11586183
1,62171;;;-25,00550363
1,62221;;;24,13079601
1,62271;;;72,65670684
1,62321;;;97,98784268
1,62371;;;95,85148182
1,62421;;;77,23462295
1,62471;;;60,75412494
1,62521;;;57,09179205
1,62571;;;55,2606256
1,62621;;;34,81260028
1,62671;;;-3,336700678
1,62721;;;-32,63536382
1,62771;;;-34,77172467
1,62821;;;-26,53147566
1,62871;;;-32,33016941
1,62921;;;-46,67430657
1,62971;;;-46,97950098
1,63021;;;-35,9925023
1,63071;;;-39,34964079
1,63121;;;-62,23922136
1,63171;;;-78,10933057
1,63221;;;-66,81713748
1,63271;;;-41,48600164
1,63321;;;-24,39511481
1,63371;;;-14,93408817
1,63421;;;-0,589951009
1,63471;;;16,80613023
1,63521;;;25,65676805
1,63571;;;25,65676805
1,63621;;;28,09832331
1,63671;;;38,47493318
1,63721;;;48,54634863
1,63771;;;51,59829271
1,63821;;;50,98790389
1,63871;;;52,20868152
1,63921;;;53,42945915
1,63971;;;49,76712626
1,64021;;;41,83207166
1,64071;;;34,20221147
1,64121;;;32,06585062
1,64171;;;37,55934995
1,64221;;;46,10479337
1,64271;;;48,24115422
1,64321;;;37,55934995
1,64371;;;19,85807431
1,64421;;;5,208742737
1,64471;;;-5,473061532
1,64521;;;-21,95355955
1,64571;;;-40,26522401
1,64621;;;-40,87561283
1,64671;;;-13,71331054
1,64721;;;22,29962957
1,64771;;;42,44246048
1,64821;;;47,63076541
1,64871;;;57,70218086
1,64921;;;73,26709565
1,64971;;;72,35151243
1,65021;;;47,63076541
1,65071;;;21,07885194
1,65121;;;8,565881222
1,65171;;;-1,200339824
1,65221;;;-21,34317073
1,65271;;;-40,26522401
1,65321;;;-46,36911216
1,65371;;;-55,5249444
1,65421;;;-86,04438517
1,65471;;;-119,3105756
1,65521;;;-124,1936861
1,65571;;;-106,1872161
1,65621;;;-97,03138384
1,65671;;;-97,94696707
1,65721;;;-72,92102563
1,65771;;;-8,219811202
1,65821;;;58,61776409
1,65871;;;90,05278808
1,65920;;;99,20862031
1,65970;;;126,3709226
1,66020;;;176,7279999
1,66070;;;212,1305512
1,66120;;;201,4487469
1,66170;;;157,8059466
1,66220;;;119,96184
1,66270;;;103,1761476
1,66320;;;81,50734466
1,66370;;;22,91001838
1,66420;;;-64,68077663
1,66470;;;-135,4858792
1,66520;;;-155,6287101
1,66570;;;-140,3689897
1,66620;;;-126,6352414
1,66670;;;-129,9923799
1,66720;;;-140,0637953
1,66770;;;-147,3884611
1,66820;;;-145,8624891
1,66870;;;-124,4988805
1,66920;;;-79,94049701
1,66970;;;-35,9925023
1,67020;;;-17,07044902
1,67070;;;-13,71331054
1,67120;;;0,9360210295
1,67170;;;27,18274009
1,67220;;;37,25415555
1,67270;;;24,43599042
1,67320;;;9,786658853
1,67370;;;5,208742737
1,67420;;;0,9360210295
1,67470;;;-4,252283901
1,67520;;;3,987965107
1,67570;;;27,4879345
1,67620;;;47,02037659
1,67670;;;64,41645783
1,67720;;;107,4488693
1,67770;;;173,6760558
1,67820;;;214,5721064
1,67870;;;199,6175804
1,67920;;;159,637113
1,67970;;;135,5267548
1,68020;;;116,2995071
1,68070;;;75,70865092
1,68120;;;34,81260028
1,68170;;;35,11779469
1,68220;;;64,11126342
1,68270;;;69,90995717
1,68320;;;39,3905164
1,68370;;;9,481464445
1,68420;;;-5,77825594
1,68470;;;-38,12886316
1,68520;;;-96,11580062
1,68570;;;-132,7391295
1,68620;;;-108,9339657
1,68670;;;-44,84314013
1,68720;;;18,63729668
1,68770;;;73,26709565
1,68820;;;119,3514512
1,68870;;;128,5072834
1,68920;;;77,23462295
1,68970;;;-6,999033571
1,69020;;;-73,53141445
1,69070;;;-110,1547434
1,69120;;;-135,4858792
1,69170;;;-142,810545
1,69220;;;-104,661244
1,69270;;;-29,88861415
1,69320;;;22,29962957
1,69370;;;7,955492407
1,69420;;;-60,10286051
1,69470;;;-131,8235463
1,69520;;;-166,3105144
1,69570;;;-154,4079325
1,69620;;;-117,4794092
1,69670;;;-91,5378845
1,69720;;;-88,79113483
1,69770;;;-81,77166346
1,69820;;;-42,40158486
1,69870;;;6,734714776
1,69920;;;17,11132464
1,69970;;;-17,37564343
1,70020;;;-47,28469539
1,70070;;;-34,16133586
1,70120;;;2,461993068
1,70170;;;23,21521279
1,70220;;;18,33210227
1,70270;;;0,9360210295
1,70320;;;-23,78472599
1,70370;;;-57,66130525
1,70420;;;-91,2326901
1,70470;;;-112,5962986
1,70520;;;-124,8040749
1,70570;;;-137,9274345
1,70620;;;-149,524822
1,70670;;;-149,2196276
1,70720;;;-135,1806848
1,70770;;;-113,5118819
1,70820;;;-89,09632924
1,70870;;;-61,62883255
1,70920;;;-34,46653026
1,70970;;;-11,57694969
1,71020;;;3,682770699
1,71070;;;7,955492407
1,71120;;;-0,8951454167
1,71170;;;-17,07044902
1,71220;;;-26,83667007
1,71270;;;-25,31069803
1,71320;;;-23,17433718
1,71370;;;-30,19380856
1,71420;;;-41,79119605
1,71470;;;-39,9600296
1,71520;;;-10,96656087
1,71569;;;39,08532199
1,71619;;;86,39045519
1,71669;;;104,3969252
1,71719;;;89,44239926
1,71769;;;64,11126342
1,71819;;;50,07232067
1,71869;;;46,40998778
1,71919;;;42,13726607
1,71969;;;39,69571081
1,72019;;;51,2930983
1,72069;;;74,48787329
1,72119;;;96,76706505
1,72169;;;113,8579519
1,72219;;;130,0332555
1,72269;;;142,5462262
1,72319;;;140,4098653
1,72369;;;126,676117
1,72419;;;117,8254792
1,72469;;;120,5722288
1,72519;;;122,4033953
1,72569;;;108,9748414
1,72619;;;81,50734466
1,72669;;;48,24115422
1,72719;;;14,36457497
1,72769;;;-12,1873385
1,72819;;;-22,56394836
1,72869;;;-20,42758751
1,72919;;;-23,78472599
1,72969;;;-40,57041842
1,73019;;;-52,47300032
1,73069;;;-34,46653026
1,73119;;;12,22821411
1,73169;;;60,14373612
1,73219;;;85,47487196
1,73269;;;90,05278808
1,73319;;;86,39045519
1,73369;;;76,92942855
1,73419;;;54,34504238
1,73469;;;24,74118483
1,73519;;;9,786658853
1,73569;;;23,82560161
1,73619;;;51,59829271
1,73669;;;64,41645783
1,73719;;;52,20868152
1,73769;;;24,43599042
1,73819;;;-9,135394425
1,73869;;;-43,62236249
1,73919;;;-60,71324933
1,73969;;;-39,65483519
1,74019;;;6,734714776
1,74069;;;36,03337792
1,74119;;;23,82560161
1,74169;;;-7,304227978
1,74219;;;-26,22628126
1,74269;;;-32,024975
1,74319;;;-36,60289112
1,74369;;;-32,33016941
1,74419;;;-12,1873385
1,74469;;;2,15679866
1,74519;;;-6,388644755
1,74569;;;-7,304227978
1,74619;;;51,90348712
1,74669;;;164,2150291
1,74719;;;256,9941291
1,74769;;;276,5265712
1,74819;;;242,3447975
1,74869;;;203,5851077
1,74919;;;174,8968334
1,74969;;;139,7994765
1,75019;;;90,66317689
1,75069;;;40,91648844
1,75119;;;0,02043780641
1,75169;;;-36,60289112
1,75219;;;-76,27816412
1,75269;;;-118,7001868
1,75319;;;-156,8494878
1,75369;;;-181,5702348
1,75419;;;-190,4208726
1,75469;;;-184,9273733
1,75519;;;-161,7325983
1,75569;;;-113,5118819
1,75619;;;-49,72625065
1,75669;;;0,3256322141
1,75719;;;19,85807431
1,75769;;;24,74118483
1,75819;;;37,25415555
1,75869;;;47,63076541
1,75919;;;24,13079601
1,75969;;;-32,63536382
1,76019;;;-80,55088583
1,76069;;;-83,6028299
1,76119;;;-55,5249444
1,76169;;;-39,04444638
1,76219;;;-56,44052762
1,76269;;;-90,92749569
1,76319;;;-116,2586315
1,76369;;;-129,3819911
1,76419;;;-146,4728779
1,76469;;;-167,2260976
1,76519;;;-164,1741535
1,76569;;;-115,6482427
1,76619;;;-42,70677927
1,76669;;;8,260686814
1,76719;;;14,66976938
1,76769;;;-6,083450348
1,76819;;;-25,00550363
1,76869;;;-28,97303093
1,76919;;;-18,59642106
1,76969;;;-4,252283901
1,77019;;;0,3256322141
1,77069;;;-7,304227978
1,77119;;;-7,304227978
1,77168;;;23,5204072
1,77218;;;79,37098381
1,77268;;;132,1696163
1,77318;;;166,6565844
1,77368;;;183,1370824
1,77418;;;172,1500838
1,77468;;;115,3839239
1,77518;;;30,84507298
1,77568;;;-26,22628126
1,77618;;;-20,73278192
1,77668;;;18,94249108
1,77718;;;41,83207166
1,77768;;;33,59182265
1,77818;;;16,50093582
1,77868;;;-6,083450348
1,77918;;;-65,90155426
1,77968;;;-171,4988193
1,78018;;;-266,4142801
1,78068;;;-276,79089
1,78118;;;-205,9857874
1,78168;;;-137,9274345
1,78218;;;-129,0767967
1,78268;;;-130,9079631
1,78318;;;-62,54441577
1,78368;;;65,33204105
1,78418;;;160,5526963
1,78468;;;174,8968334
1,78518;;;161,1630851
1,78568;;;177,9487775
1,78618;;;202,9747189
1,78668;;;182,5266936
1,78718;;;119,96184
1,78768;;;61,66970816
1,78818;;;22,91001838
1,78868;;;-20,73278192
1,78918;;;-79,02491379
1,78968;;;-131,2131575
1,79018;;;-166,00532
1,79068;;;-195,9143719
1,79118;;;-221,2455078
1,79168;;;-220,635119
1,79218;;;-182,1806236
1,79268;;;-128,7716022
1,79318;;;-88,48594043
1,79368;;;-63,459999
1,79418;;;-35,9925023
1,79468;;;1,851604253
1,79518;;;43,05284929
1,79568;;;74,79306769
1,79618;;;93,10473216
1,79668;;;98,59823149
1,79718;;;95,54628742
1,79768;;;91,57876012
1,79818;;;99,51381472
1,79868;;;133,390394
1,79918;;;197,786414
1,79968;;;273,4746271
1,80018;;;325,052482
1,80068;;;330,2407869
1,80118;;;298,5005685
1,80168;;;253,942185
1,80218;;;200,8383581
1,80268;;;117,2150904
1,80318;;;-7,914616794
1,80368;;;-144,9469059
1,80418;;;-239,5571722
1,80468;;;-265,8038913
1,80518;;;-254,2065038
1,80568;;;-263,6675304
1,80618;;;-320,1284959
1,80668;;;-389,7128208
1,80718;;;-418,4010952
1,80768;;;-392,1543761
1,80818;;;-343,6284653
1,80868;;;-298,7648873
1,80918;;;-243,5246995
1,80968;;;-160,5118206
1,81018;;;-75,97296971
1,81068;;;-36,90808553
1,81118;;;-44,84314013
1,81168;;;-50,94702828
1,81218;;;-28,0574477
1,81268;;;-7,304227978
1,81318;;;-21,34317073
1,81368;;;-45,14833453
1,81418;;;-27,14186448
1,81468;;;34,50740588
1,81518;;;92,18914893
1,81568;;;113,5527575
1,81618;;;117,2150904
1,81668;;;129,7280611
1,81718;;;144,9877815
1,81768;;;141,630643
1,81818;;;118,1306736
1,81868;;;88,83201045
1,81918;;;56,78659764
1,81968;;;19,24768549
1,82018;;;-9,135394425
1,82068;;;-6,083450348
1,82118;;;25,65676805
1,82168;;;49,46193185
1,82218;;;42,44246048
1,82268;;;33,28662825
1,82318;;;70,52034599
1,82368;;;155,9747801
1,82418;;;238,987659
1,82468;;;276,2213768
1,82518;;;277,7473488
1,82568;;;274,6954047
1,82618;;;264,6239893
1,82668;;;217,9292449
1,82718;;;137,0527269
1,82768;;;68,68917954
1,82817;;;45,79959896
1,82867;;;45,79959896
1,82917;;;23,21521279
1,82967;;;-25,00550363
1,83017;;;-63,459999
1,83067;;;-68,03791511
1,83117;;;-50,94702828
1,83167;;;-28,66783652
1,83217;;;1,851604253
1,83267;;;42,74765488
1,83317;;;63,80606902
1,83367;;;28,09832331
1,83417;;;-60,40805492
1,83467;;;-147,6936555
1,83517;;;-178,8234851
1,83567;;;-147,6936555
1,83617;;;-94,89502299
1,83667;;;-63,7651934
1,83717;;;-63,459999
1,83767;;;-72,31063682
1,83817;;;-68,03791511
1,83867;;;-47,8950842
1,83917;;;-22,86914277
1,83967;;;-0,589951009
1,84017;;;19,85807431
1,84067;;;40,91648844
1,84117;;;60,14373612
1,84167;;;74,48787329
1,84217;;;80,28656703
1,84267;;;72,96190125
1,84317;;;55,2606256
1,84367;;;43,96843252
1,84417;;;60,14373612
1,84467;;;105,9228973
1,84517;;;159,3319186
1,84567;;;194,1240811
1,84617;;;199,6175804
1,84667;;;182,5266936
1,84717;;;153,5332249
1,84767;;;112,9423687
1,84817;;;54,34504238
1,84867;;;-15,23928258
1,84917;;;-67,12233189
1,84967;;;-76,88855293
1,85017;;;-66,20674866
1,85067;;;-82,07685787
1,85117;;;-129,9923799
1,85167;;;-154,4079325
1,85217;;;-108,6287713
1,85267;;;-17,68083784
1,85317;;;56,48140323
1,85367;;;89,74759367
1,85417;;;100,1242035
1,85467;;;96,76706505
1,85517;;;72,96190125
1,85567;;;48,24115422
1,85617;;;67,46840191
1,85667;;;140,7150598
1,85717;;;223,4227442
1,85767;;;273,7798215
1,85817;;;300,6369294
1,85867;;;328,1044261
1,85917;;;333,9031198
1,85967;;;269,8122942
1,86017;;;136,1371436
1,86067;;;0,02043780641
1,86117;;;-77,19374734
1,86167;;;-117,1742148
1,86217;;;-191,9468446
1,86267;;;-325,3168008
1,86317;;;-453,498452
1,86367;;;-502,0243629
1,86417;;;-469,9789501
1,86467;;;-412,9075958
1,86517;;;-364,0764906
1,86567;;;-317,6869406
1,86617;;;-272,2129739
1,86667;;;-243,5246995
1,86717;;;-224,2974519
1,86767;;;-183,4014012
1,86817;;;-122,9729085
1,86867;;;-93,36905095
1,86917;;;-119,9209644
1,86967;;;-156,8494878
1,87017;;;-147,0832667
1,87067;;;-98,86255029
1,87117;;;-63,7651934
1,87167;;;-61,93402696
1,87217;;;-70,17427596
1,87267;;;-71,08985919
1,87317;;;-68,95349833
1,87367;;;-61,32363814
1,87417;;;-35,9925023
1,87467;;;-1,505534232
1,87517;;;16,80613023
1,87567;;;15,28015819
1,87617;;;18,63729668
1,87667;;;47,93595982
1,87717;;;95,85148182
1,87767;;;142,8514206
1,87817;;;177,9487775
1,87867;;;199,0071916
1,87917;;;204,500691
1,87967;;;195,9552476
1,88017;;;174,2864446
1,88067;;;138,5786989
1,88117;;;92,18914893
1,88167;;;48,54634863
1,88217;;;19,24768549
1,88267;;;3,377576291
1,88317;;;-6,083450348
1,88367;;;-9,74578324
1,88416;;;-11,27175528
1,88466;;;-23,78472599
1,88516;;;-49,42105624
1,88566;;;-62,23922136
1,88616;;;-39,04444638
1,88666;;;0,02043780641
1,88716;;;17,11132464
1,88766;;;7,039909184
1,88816;;;0,02043780641
1,88866;;;8,87107563
1,88916;;;13,44899175
1,88966;;;3,377576291
1,89016;;;-0,589951009
1,89066;;;17,41651905
1,89116;;;40,30609962
1,89166;;;39,3905164
1,89216;;;16,19574141
1,89266;;;-0,8951454167
1,89316;;;8,565881222
1,89366;;;39,3905164
1,89416;;;66,85801309
1,89466;;;73,87748447
1,89516;;;67,77359632
1,89566;;;67,77359632
1,89616;;;73,26709565
1,89666;;;63,1956802
1,89716;;;33,28662825
1,89766;;;14,36457497
1,89816;;;27,79312891
1,89866;;;48,54634863
1,89916;;;46,10479337
1,89966;;;36,33857232
1,90016;;;52,81907034
1,90066;;;84,25409433
1,90116;;;95,85148182
1,90166;;;93,10473216
1,90216;;;113,8579519
1,90266;;;158,7215298
1,90316;;;186,1890265
1,90366;;;180,6955272
1,90416;;;167,877362
1,90466;;;153,2280305
1,90516;;;110,195619
1,90566;;;36,33857232
1,90616;;;-28,0574477
1,90666;;;-57,35611084
1,90716;;;-65,29116544
1,90766;;;-64,07038781
1,90816;;;-49,11586183
1,90866;;;-32,94055823
1,90916;;;-36,90808553
1,90966;;;-33,55094704
1,91016;;;40,30609962
1,91066;;;185,8838321
1,91116;;;314,0654833
1,91166;;;352,8251731
1,91216;;;324,7472876
1,91266;;;285,0720146
1,91316;;;237,1564926
1,91366;;;156,8903634
1,91416;;;58,00737527
1,91466;;;-29,88861415
1,91516;;;-116,8690203
1,91566;;;-226,4338127
1,91616;;;-338,1349659
1,91666;;;-401,3102083
1,91716;;;-401,6154027
1,91766;;;-368,3492123
1,91816;;;-319,8233015
1,91866;;;-244,7454772
1,91916;;;-142,810545
1,91966;;;-49,42105624
1,92016;;;-1,200339824
1,92066;;;1,241215437
1,92116;;;-9,74578324
1,92166;;;-10,35617206
1,92216;;;-4,252283901
1,92266;;;-14,32369936
1,92316;;;-54,30416676
1,92366;;;-112,5962986
1,92416;;;-161,4274039
1,92466;;;-180,0442627
1,92516;;;-165,7001256
1,92566;;;-134,2651016
1,92616;;;-115,9534371
1,92666;;;-140,9793786
1,92716;;;-204,7650098
1,92766;;;-257,2584479
1,92816;;;-241,9987275
1,92866;;;-160,8170151
1,92916;;;-75,97296971
1,92966;;;-42,40158486
1,93016;;;-50,64183387
1,93066;;;-50,33663946
1,93116;;;-18,59642106
1,93166;;;19,24768549
1,93216;;;33,89701706
1,93266;;;29,31910095
1,93316;;;28,70871213
1,93366;;;36,94896114
1,93416;;;38,47493318
1,93466;;;29,31910095
1,93516;;;27,4879345
1,93566;;;44,88401574
1,93616;;;70,52034599
1,93666;;;89,44239926
1,93716;;;104,7021196
1,93766;;;117,2150904
1,93816;;;107,1436749
1,93866;;;67,77359632
1,93916;;;39,08532199
1,93966;;;69,60476276
1,94016;;;141,3254486
1,94065;;;177,6435831
1,94115;;;140,1046709
1,94165;;;75,0982621
1,94215;;;46,10479337
1,94265;;;57,39698645
1,94315;;;70,21515158
1,94365;;;65,02684665
1,94415;;;42,74765488
1,94465;;;-0,8951454167
1,94515;;;-63,7651934
1,94565;;;-109,5443546
1,94615;;;-97,03138384
1,94665;;;-35,38211349
1,94715;;;22,91001838
1,94765;;;46,10479337
1,94815;;;41,83207166
1,94865;;;29,31910095
1,94915;;;19,85807431
1,94965;;;27,79312891
1,95015;;;55,87101442
1,95065;;;73,87748447
1,95115;;;44,57882133
1,95165;;;-16,1548658
1,95215;;;-50,64183387
1,95265;;;-40,57041842
1,95315;;;-32,63536382
1,95365;;;-60,71324933
1,95415;;;-86,65477398
1,95465;;;-58,57688847
1,95515;;;5,819131553
1,95565;;;47,93595982
1,95615;;;56,48140323
1,95665;;;70,21515158
1,95715;;;102,2605644
1,95765;;;123,9293673
1,95815;;;133,0851996
1,95865;;;165,1306124
1,95915;;;215,7928841
1,95965;;;215,4876896
1,96015;;;132,4748107
1,96065;;;43,96843252
1,96115;;;41,22168285
1,96165;;;101,3449812
1,96215;;;128,202089
1,96265;;;92,49434334
1,96315;;;50,07232067
1,96365;;;28,09832331
1,96415;;;-19,81719869
1,96465;;;-117,1742148
1,96515;;;-206,5961762
1,96565;;;-233,1480897
1,96615;;;-226,7390071
1,96665;;;-255,122087
1,96715;;;-323,7908288
1,96765;;;-372,0115452
1,96815;;;-342,1024932
1,96865;;;-233,1480897
1,96915;;;-106,7976049
1,96965;;;-47,28469539
1,97015;;;-85,12880194
1,97065;;;-151,9663772
1,97115;;;-151,3559884
1,97165;;;-78,41452497
1,97215;;;-18,59642106
1,97265;;;-17,07044902
1,97315;;;-25,00550363
1,97365;;;1,546409845
1,97415;;;31,15026739
1,97465;;;26,26715687
1,97515;;;14,97496378
1,97565;;;25,65676805
1,97615;;;19,85807431
1,97665;;;-38,73925197
1,97715;;;-98,86255029
1,97765;;;-90,01191247
1,97815;;;-38,43405756
1,97865;;;-26,83667007
1,97915;;;-65,29116544
1,97965;;;-84,21321872
1,98015;;;-44,53794572
1,98065;;;22,60482398
1,98115;;;83,0333167
1,98165;;;131,2540331
1,98215;;;156,8903634
1,98265;;;142,8514206
1,98315;;;108,6696469
1,98365;;;95,85148182
1,98415;;;105,9228973
1,98465;;;105,0073141
1,98515;;;90,9683713
1,98565;;;102,8709532
1,98615;;;151,396864
1,98665;;;196,260442
1,98715;;;207,2474406
1,98765;;;195,3448587
1,98815;;;169,7085285
1,98865;;;112,3319798
1,98915;;;22,91001838
1,98965;;;-58,27169406
1,99015;;;-101,3041056
1,99065;;;-120,8365476
1,99115;;;-139,4534065
1,99165;;;-147,0832667
1,99215;;;-129,0767967
1,99265;;;-106,1872161
1,99315;;;-104,9664384
1,99365;;;-111,9859098
1,99415;;;-93,06385654
1,99465;;;-47,28469539
1,99515;;;-8,219811202
1,99565;;;2,461993068
1,99615;;;0,3256322141
1,99664;;;4,598353922
1,99714;;;14,97496378
1,99764;;;17,41651905
1,99814;;;8,260686814
1,99864;;;-1,81072864
1,99914;;;-0,8951454167
1,99964;;;11,6178253
2,00014;;;26,87754568
2,00064;;;38,16973877
2,00114;;;49,76712626
2,00164;;;65,94242987
2,00214;;;79,37098381
2,00264;;;77,84501177
2,00314;;;65,94242987
2,00364;;;61,97490257
2,00414;;;71,1307348
2,00464;;;80,89695585
2,00514;;;85,16967756
2,00564;;;89,44239926
2,00614;;;89,74759367
2,00664;;;69,90995717
2,00714;;;33,28662825
2,00764;;;10,09185326
2,00814;;;14,05938056
2,00864;;;17,11132464
2,00914;;;-4,252283901
2,00964;;;-27,44705889
2,01014;;;-17,07044902
2,01064;;;11,6178253
2,01114;;;18,94249108
2,01164;;;11,31263089
2,01214;;;42,13726607
2,01264;;;129,1176723
2,01314;;;221,8967722
2,01364;;;266,7603501
2,01414;;;261,8772396
2,01464;;;229,5266324
2,01514;;;177,0331943
2,01564;;;114,7735351
2,01614;;;74,48787329
2,01664;;;68,07879072
2,01714;;;49,76712626
2,01764;;;-30,80419737
2,01814;;;-151,050794
2,01864;;;-229,7909512
2,01914;;;-223,3818686
2,01964;;;-170,2780417
2,02014;;;-131,5183519
2,02064;;;-126,0248526
2,02114;;;-131,5183519
2,02164;;;-128,1612134
2,02214;;;-111,6807154
2,02264;;;-83,90802431
2,02314;;;-48,50547302
2,02364;;;-15,54447699
2,02414;;;3,072381883
2,02464;;;6,734714776
2,02514;;;0,02043780641
2,02564;;;-19,20680988
2,02614;;;-49,72625065
2,02664;;;-60,10286051
2,02714;;;2,15679866
2,02764;;;154,1436137
2,02814;;;330,5459813
2,02864;;;438,2796073
2,02914;;;454,4549109
2,02964;;;439,1951905
2,03014;;;433,3964967
2,03064;;;395,5523902
2,03114;;;277,4421544
2,03164;;;123,0137841
2,03214;;;8,565881222
2,03264;;;-86,34957957
2,03314;;;-255,7324758
2,03364;;;-490,7321698
2,03414;;;-636,0047078
2,03464;;;-578,3229648
2,03514;;;-404,3621524
2,03564;;;-285,3363334
2,03614;;;-262,1415584
2,03664;;;-237,115617
2,03714;;;-151,3559884
2,03764;;;-60,71324933
2,03814;;;-23,47953159
2,03864;;;-10,35617206
2,03914;;;24,74118483
2,03964;;;61,36451375
2,04014;;;47,325571
2,04064;;;-13,10292172
2,04114;;;-61,32363814
2,04164;;;-59,7976661
2,04214;;;-36,29769671
2,04264;;;-49,11586183
2,04314;;;-119,0053812
2,04364;;;-200,7974825
2,04414;;;-224,9078407
2,04464;;;-174,5507634
2,04514;;;-104,0508552
2,04564;;;-63,459999
2,04614;;;-36,60289112
2,04664;;;14,66976938
2,04714;;;76,31903973
2,04764;;;103,1761476
2,04814;;;97,37745386
2,04864;;;98,29303709
2,04914;;;104,3969252
2,04964;;;74,79306769
2,05014;;;9,176270037
2,05064;;;-42,09639046
2,05114;;;-60,40805492
2,05164;;;-82,38205227
2,05214;;;-124,1936861
2,05264;;;-144,9469059
2,05313;;;-121,1417421
2,05363;;;-93,67424536
2,05413;;;-102,2196888
2,05463;;;-123,5832973
2,05513;;;-111,375521
2,05563;;;-64,07038781
2,05613;;;-12,79772732
2,05663;;;27,18274009
2,05713;;;56,78659764
2,05763;;;70,52034599
2,05813;;;69,90995717
2,05863;;;72,35151243
2,05913;;;85,78006637
2,05963;;;92,18914893
2,06013;;;73,57229006
2,06063;;;37,25415555
2,06113;;;2,461993068
2,06163;;;-13,10292172
2,06213;;;5,208742737
2,06263;;;54,65023678
2,06313;;;91,57876012
2,06363;;;76,01384532
2,06413;;;34,81260028
2,06463;;;36,03337792
2,06513;;;89,13720486
2,06563;;;130,0332555
2,06613;;;115,9943127
2,06663;;;75,0982621
2,06713;;;44,27362692
2,06763;;;17,11132464
2,06813;;;-8,830200017
2,06863;;;0,9360210295
2,06913;;;60,75412494
2,06963;;;119,96184
2,07013;;;128,8124779
2,07063;;;105,3125085
2,07113;;;93,71512097
2,07163;;;94,63070419
2,07213;;;82,72812229
2,07263;;;63,50087461
2,07313;;;61,36451375
2,07363;;;70,82554039
2,07413;;;70,21515158
2,07463;;;59,2281529
2,07513;;;48,54634863
2,07563;;;33,89701706
2,07613;;;10,70224208
2,07663;;;-4,252283901
2,07713;;;-7,609422386
2,07763;;;-28,36264211
2,07813;;;-78,71971938
2,07863;;;-110,1547434
2,07913;;;-72,00544241
2,07963;;;10,09185326
2,08013;;;62,89048579
2,08063;;;57,39698645
2,08113;;;27,4879345
2,08163;;;9,176270037
2,08213;;;4,598353922
2,08263;;;5,208742737
2,08313;;;5,208742737
2,08363;;;-0,2847566013
2,08413;;;-6,693839163
2,08463;;;6,429520368
2,08513;;;40,30609962
2,08563;;;58,31256968
2,08613;;;37,86454436
2,08663;;;18,63729668
2,08713;;;43,66323811
2,08763;;;81,20215026
2,08813;;;61,97490257
2,08863;;;-1,505534232
2,08913;;;-14,62889376
2,08963;;;67,1632075
2,09013;;;162,0786683
2,09063;;;168,1825564
2,09113;;;100,7345923
2,09163;;;61,05931935
2,09213;;;82,72812229
2,09263;;;79,98137262
2,09313;;;-25,92108685
2,09363;;;-184,6221789
2,09413;;;-270,3818074
2,09463;;;-241,0831443
2,09513;;;-176,3819298
2,09563;;;-151,9663772
2,09613;;;-142,810545
2,09663;;;-91,2326901
2,09713;;;-19,81719869
2,09763;;;-1,81072864
2,09813;;;-43,9275569
2,09863;;;-73,83660886
2,09913;;;-54,30416676
2,09963;;;-33,85614145
2,10013;;;-60,40805492
2,10063;;;-99,77813351
2,10113;;;-90,01191247
2,10163;;;-39,04444638
2,10213;;;-13,40811613
2,10263;;;-38,12886316
2,10313;;;-62,54441577
2,10363;;;-38,73925197
2,10413;;;13,14379734
2,10463;;;46,10479337
2,10513;;;60,14373612
2,10563;;;99,51381472
2,10613;;;177,9487775
2,10663;;;253,6369906
2,10713;;;281,4096817
2,10763;;;254,8577682
2,10813;;;190,7669426
2,10863;;;98,9034259
2,10912;;;-0,2847566013
2,10962;;;-74,44699767
2,11012;;;-117,4794092
2,11062;;;-170,2780417
2,11112;;;-255,4272814
2,11162;;;-319,8233015
2,11212;;;-292,3558048
2,11262;;;-184,3169844
2,11312;;;-87,2651628
2,11362;;;-69,56388715
2,11412;;;-119,9209644
2,11462;;;-179,1286795
2,11512;;;-190,4208726
2,11562;;;-120,2261588
2,11612;;;19,85807431
2,11662;;;164,2150291
2,11712;;;242,0396031
2,11762;;;237,7668814
2,11812;;;184,3578601
2,11862;;;107,1436749
2,11912;;;18,33210227
2,11962;;;-53,38858354
2,12012;;;-80,85608023
2,12062;;;-83,2976355
2,12112;;;-106,4924105
2,12162;;;-151,050794
2,12212;;;-169,0572641
2,12262;;;-139,7586009
2,12312;;;-102,8300776
2,12362;;;-95,81060621
2,12412;;;-106,7976049
2,12462;;;-107,7131881
2,12512;;;-97,03138384
2,12562;;;-83,90802431
2,12612;;;-61,62883255
2,12662;;;-24,39511481
2,12712;;;7,955492407
2,12762;;;18,63729668
2,12812;;;21,07885194
2,12862;;;37,86454436
2,12912;;;61,05931935
2,12962;;;70,21515158
2,13012;;;71,1307348
2,13062;;;88,22162163
2,13112;;;111,4163966
2,13162;;;99,20862031
2,13212;;;47,325571
2,13262;;;16,19574141
2,13312;;;61,36451375
2,13362;;;159,3319186
2,13412;;;241,1240199
2,13462;;;285,377209
2,13512;;;323,8317044
2,13562;;;359,8446445
2,13612;;;347,3316738
2,13662;;;269,5070998
2,13712;;;186,1890265
2,13762;;;147,7345311
2,13812;;;111,1112022
2,13862;;;-2,421117455
2,13912;;;-176,6871243
2,13962;;;-301,8168314
2,14012;;;-306,6999419
2,14062;;;-238,3363946
2,14112;;;-185,5377621
2,14162;;;-173,9403746
2,14212;;;-163,5637647
2,14262;;;-118,089798
2,14312;;;-46,67430657
2,14362;;;7,955492407
2,14412;;;9,481464445
2,14462;;;-34,46653026
2,14512;;;-72,92102563
2,14562;;;-64,07038781
2,14612;;;-25,00550363
2,14662;;;2,15679866
2,14712;;;14,97496378
2,14762;;;36,33857232
2,14812;;;46,71518218
2,14862;;;-2,421117455
2,14912;;;-100,9989111
2,14962;;;-164,4793479
2,15012;;;-140,0637953
2,15062;;;-72,61583123
2,15112;;;-30,19380856
2,15162;;;-25,61589244
2,15212;;;-37,82366875
2,15262;;;-52,77819473
2,15312;;;-47,8950842
2,15362;;;9,176270037
2,15412;;;104,7021196
2,15462;;;169,4033341
2,15512;;;175,2020278
2,15562;;;174,2864446
2,15612;;;216,0980785
2,15662;;;283,2408482
2,15712;;;349,773229
2,15762;;;416,9159987
2,15812;;;448,0458283
2,15862;;;366,8641159
2,15912;;;198,0916084
2,15962;;;100,7345923
2,16012;;;162,6890571
2,16062;;;249,9746577
2,16112;;;183,7474712
2,16162;;;-15,84967139
2,16212;;;-194,6935943
2,16262;;;-300,9012482
2,16312;;;-394,2907369
2,16362;;;-465,7062283
2,16412;;;-436,7127596
2,16462;;;-339,660938
2,16512;;;-317,992135
2,16561;;;-408,0244853
2,16611;;;-468,7581724
2,16661;;;-392,1543761
2,16711;;;-252,6805318
2,16761;;;-173,3299858
2,16811;;;-155,0183213
2,16861;;;-122,9729085
2,16911;;;-58,88208288
2,16961;;;1,241215437
2,17011;;;48,85154304
2,17061;;;95,24109301
2,17111;;;123,0137841
2,17161;;;108,3644525
2,17211;;;76,01384532
2,17261;;;63,50087461
2,17311;;;54,65023678
2,17361;;;2,461993068
2,17411;;;-81,16127464
2,17461;;;-123,2781029
2,17511;;;-83,6028299
2,17561;;;-7,914616794
2,17611;;;34,20221147
2,17661;;;42,44246048
2,17711;;;70,82554039
2,17761;;;145,2929759
2,17811;;;225,5591051
2,17861;;;264,6239893
2,17911;;;261,8772396
2,17961;;;230,1370212
2,18011;;;144,3773926
2,18061;;;-21,95355955
2,18111;;;-212,0896755
2,18161;;;-301,8168314
2,18211;;;-236,8104226
2,18261;;;-100,9989111
2,18311;;;-20,1223931
2,18361;;;-28,36264211
2,18411;;;-66,51194307
2,18461;;;-73,53141445
2,18511;;;-35,68730789
2,18561;;;29,01390654
2,18611;;;89,74759367
2,18661;;;120,2670344
2,18711;;;133,390394
2,18761;;;178,5591663
2,18811;;;263,7084061
2,18861;;;317,7278162
2,18911;;;280,7992929
2,18961;;;194,4292755
2,19011;;;144,6825871
2,19061;;;131,8644219
2,19111;;;79,98137262
2,19161;;;-32,024975
2,19211;;;-129,9923799
2,19261;;;-148,6092387
2,19311;;;-113,8170763
2,19361;;;-85,43399635
2,19411;;;-79,94049701
2,19461;;;-84,51841313
2,19511;;;-99,1677447
2,19561;;;-120,8365476
2,19611;;;-120,5313532
2,19661;;;-83,6028299
2,19711;;;-41,48600164
2,19761;;;-33,24575263
2,19811;;;-48,50547302
2,19861;;;-45,75872335
2,19911;;;-17,07044902
2,19961;;;5,819131553
2,20011;;;2,767187476
2,20061;;;-9,74578324
2,20111;;;-9,135394425
2,20161;;;5,208742737
2,20211;;;25,04637924
2,20261;;;56,48140323
2,20311;;;112,3319798
2,20361;;;188,9357762
2,20411;;;264,0136005
2,20461;;;327,4940373
2,20511;;;387,6173356
2,20561;;;440,4159681
2,20611;;;452,9289388
2,20661;;;401,0458895
2,20711;;;305,8252343
2,20761;;;201,1435525
2,20811;;;78,76059499
2,20861;;;-85,12880194
2,20911;;;-254,5116982
2,20961;;;-336,6089939
2,21011;;;-297,2389153
2,21061;;;-216,0572028
2,21111;;;-191,9468446
2,21161;;;-233,7584785
2,21211;;;-284,7259446
2,21261;;;-311,5830525
2,21311;;;-314,3298021
2,21361;;;-274,0441403
2,21411;;;-169,3624585
2,21461;;;-37,51847434
2,21511;;;52,81907034
2,21561;;;93,40992656
2,21611;;;134,916366
2,21661;;;183,7474712
2,21711;;;171,8448893
2,21761;;;66,85801309
2,21811;;;-55,5249444
2,21861;;;-109,2391602
2,21911;;;-105,5768273
2,21961;;;-107,7131881
2,22011;;;-114,1222707
2,22061;;;-78,10933057
2,22111;;;-21,34317073
2,22160;;;-30,19380856
2,22210;;;-119,9209644
2,22260;;;-184,01179
2,22310;;;-131,5183519
2,22360;;;-13,40811613
2,22410;;;48,24115422
2,22460;;;17,11132464
2,22510;;;-36,60289112
2,22560;;;-58,27169406
2,22610;;;-66,51194307
2,22660;;;-87,2651628
2,22710;;;-93,36905095
2,22760;;;-58,57688847
2,22810;;;-21,95355955
2,22860;;;-37,51847434
2,22910;;;-82,99244109
2,22960;;;-83,90802431
2,23010;;;-24,70030922
2,23060;;;32,37104502
2,23110;;;46,40998778
2,23160;;;54,03984797
2,23210;;;85,16967756
2,23260;;;92,79953775
2,23310;;;30,23468417
2,23360;;;-45,75872335
2,23410;;;-34,46653026
2,23460;;;65,63723546
2,23510;;;153,8384193
2,23560;;;170,0137229
2,23610;;;162,9942515
2,23660;;;196,5656364
2,23710;;;259,4356844
2,23760;;;304,9096511
2,23810;;;317,1174274
2,23860;;;295,7538189
2,23910;;;231,6629933
2,23960;;;135,5267548
2,24010;;;55,87101442
2,24060;;;26,26715687
2,24110;;;26,57235128
2,24160;;;22,29962957
2,24210;;;3,987965107
2,24260;;;-29,88861415
2,24310;;;-86,34957957
2,24360;;;-147,6936555
2,24410;;;-175,1611522
2,24460;;;-169,9728473
2,24510;;;-181,5702348
2,24560;;;-222,7714798
2,24610;;;-238,3363946
2,24660;;;-191,6416502
2,24710;;;-132,4339351
2,24760;;;-115,6482427
2,24810;;;-111,0703266
2,24860;;;-57,05091643
2,24910;;;32,67623943
2,24960;;;94,9358986
2,25010;;;123,3189785
2,25060;;;181,305916
2,25110;;;298,5005685
2,25160;;;420,5783316
2,25210;;;466,3574928
2,25260;;;403,1822504
2,25310;;;258,2149067
2,25360;;;83,94889992
2,25410;;;-72,31063682
2,25460;;;-191,9468446
2,25510;;;-272,8233627
2,25560;;;-303,3428034
2,25610;;;-269,4662242
2,25660;;;-197,1351496
2,25710;;;-156,8494878
2,25760;;;-195,3039831
2,25810;;;-280,4532229
2,25860;;;-333,2518554
2,25910;;;-308,225914
2,25960;;;-221,8558966
2,26010;;;-123,2781029
2,26060;;;-56,74572203
2,26110;;;-32,024975
2,26160;;;-20,73278192
2,26210;;;7,650297999
2,26260;;;44,27362692
2,26310;;;59,53334731
2,26360;;;62,58529139
2,26410;;;94,02031538
2,26460;;;148,0397255
2,26510;;;161,1630851
2,26560;;;108,9748414
2,26610;;;57,09179205
2,26660;;;69,90995717
2,26710;;;111,1112022
2,26760;;;101,3449812
2,26810;;;42,44246048
2,26860;;;8,87107563
2,26910;;;25,35157365
2,26960;;;38,47493318
2,27010;;;17,11132464
2,27060;;;5,208742737
2,27110;;;39,69571081
2,27160;;;72,96190125
2,27210;;;38,16973877
2,27260;;;-50,94702828
2,27310;;;-117,4794092
2,27360;;;-126,6352414
2,27410;;;-112,5962986
2,27460;;;-106,1872161
2,27510;;;-89,09632924
2,27560;;;-49,42105624
2,27610;;;-30,80419737
2,27660;;;-76,58335853
2,27710;;;-147,0832667
2,27760;;;-145,5572947
2,27809;;;-34,46653026
2,27859;;;118,7410624
2,27909;;;224,0331331
2,27959;;;252,416213
2,28009;;;225,8642995
2,28059;;;168,1825564
2,28109;;;108,9748414
2,28159;;;84,86448315
2,28209;;;83,64370552
2,28259;;;26,26715687
2,28309;;;-128,1612134
2,28359;;;-282,8947781
2,28409;;;-296,3233321
2,28459;;;-173,0247914
2,28509;;;-72,92102563
2,28559;;;-102,8300776
2,28609;;;-191,9468446
2,28659;;;-213,3104532
2,28709;;;-151,3559884
2,28759;;;-83,2976355
2,28809;;;-52,77819473
2,28859;;;-44,84314013
2,28909;;;-48,20027861
2,28959;;;-64,68077663
2,29009;;;-67,4275263
2,29059;;;-23,17433718
2,29109;;;44,27362692
2,29159;;;71,43592921
2,29209;;;37,86454436
2,29259;;;-2,421117455
2,29309;;;6,734714776
2,29359;;;61,05931935
2,29409;;;118,7410624
2,29459;;;157,1955578
2,29509;;;186,1890265
2,29559;;;213,3513288
2,29609;;;225,8642995
2,29659;;;208,7734127
2,29709;;;175,2020278
2,29759;;;161,4682795
2,29809;;;183,4422768
2,29859;;;207,8578295
2,29909;;;189,8513594
2,29959;;;132,7800052
2,30009;;;85,47487196
2,30059;;;72,35151243
2,30109;;;48,24115422
2,30159;;;-45,14833453
2,30209;;;-195,3039831
2,30259;;;-312,4986357
2,30309;;;-324,0960232
2,30359;;;-253,9013094
2,30409;;;-186,7585397
2,30459;;;-170,5832361
2,30509;;;-167,8364864
2,30559;;;-120,8365476
2,30609;;;-32,33016941
2,30659;;;39,69571081
2,30709;;;63,80606902
2,30759;;;71,43592921
2,30809;;;110,195619
2,30859;;;184,9682489
2,30909;;;268,2863222
2,30959;;;341,2277856
2,31009;;;398,2991399
2,31059;;;425,1562477
2,31109;;;409,2861385
2,31159;;;368,6952823
2,31209;;;334,2083142
2,31259;;;295,1434301
2,31309;;;199,312386
2,31359;;;25,04637924
2,31409;;;-167,8364864
2,31459;;;-296,6285265
2,31509;;;-345,1544373
2,31559;;;-367,7388235
2,31609;;;-398,2582642
2,31659;;;-405,8881244
2,31709;;;-354,6154639
2,31759;;;-270,9921962
2,31809;;;-217,5831749
2,31859;;;-218,1935637
2,31909;;;-237,4208114
2,31959;;;-227,0442015
2,32009;;;-174,5507634
2,32059;;;-111,375521
2,32109;;;-89,40152365
2,32159;;;-136,7066568
2,32209;;;-216,0572028
2,32259;;;-250,8493653
2,32309;;;-200,1870936
2,32359;;;-91,2326901
2,32409;;;28,70871213
2,32459;;;143,156615
2,32509;;;246,3123248
2,32559;;;318,0330106
2,32609;;;347,6368682
2,32659;;;363,5069774
2,32709;;;397,688751
2,32759;;;441,3315513
2,32809;;;462,3899655
2,32859;;;444,078301
2,32909;;;371,1368376
2,32959;;;213,9617176
2,33009;;;-29,58341974
2,33059;;;-286,2519166
2,33109;;;-451,3620912
2,33159;;;-488,2906145
2,33209;;;-450,1413136
2,33259;;;-411,3816238
2,33309;;;-398,5634587
2,33359;;;-392,7647649
2,33408;;;-365,907657
2,33458;;;-314,3298021
2,33508;;;-256,9532535
2,33558;;;-207,5117594
2,33608;;;-155,0183213
2,33658;;;-85,73919076
2,33708;;;-19,51200429
2,33758;;;9,481464445
2,33808;;;7,039909184
2,33858;;;13,75418615
2,33908;;;42,74765488
2,33958;;;62,89048579
2,34008;;;57,39698645
2,34058;;;54,03984797
2,34108;;;72,65670684
2,34158;;;89,13720486
2,34208;;;77,23462295
2,34258;;;54,65023678
2,34308;;;55,87101442
2,34358;;;85,78006637
2,34408;;;126,3709226
2,34458;;;163,9098347
2,34508;;;183,1370824
2,34558;;;159,3319186
2,34608;;;90,05278808
2,34658;;;20,16326871
2,34708;;;6,12432596
2,34758;;;57,09179205
2,34808;;;126,9813114
2,34858;;;165,1306124
2,34908;;;157,8059466
2,34958;;;131,8644219
2,35008;;;125,150145
2,35058;;;151,7020584
2,35108;;;191,6825258
2,35158;;;211,8253568
2,35208;;;195,6500531
2,35258;;;151,396864
2,35308;;;101,95537
2,35358;;;71,1307348
2,35408;;;65,63723546
2,35458;;;65,63723546
2,35508;;;42,13726607
2,35558;;;0,02043780641
2,35608;;;-21,34317073
2,35658;;;1,851604253
2,35708;;;46,40998778
2,35758;;;82,11773348
2,35808;;;116,6047015
2,35858;;;166,0461956
2,35908;;;197,1760252
2,35958;;;157,1955578
2,36008;;;53,73465356
2,36058;;;-40,57041842
2,36108;;;-79,6353026
2,36158;;;-89,40152365
2,36208;;;-111,6807154
2,36258;;;-137,3170457
2,36308;;;-132,7391295
2,36358;;;-102,8300776
2,36408;;;-81,77166346
2,36458;;;-72,61583123
2,36508;;;-42,09639046
2,36558;;;18,63729668
2,36608;;;63,80606902
2,36658;;;50,07232067
2,36708;;;-3,947089494
2,36758;;;-39,34964079
2,36808;;;-26,83667007
2,36858;;;7,345103591
2,36908;;;23,5204072
2,36958;;;11,92301971
2,37008;;;-9,74578324
2,37058;;;-30,19380856
2,37108;;;-52,77819473
2,37158;;;-77,49894175
2,37208;;;-82,07685787
2,37258;;;-34,16133586
2,37308;;;68,99437395
2,37358;;;186,7994153
2,37408;;;262,182434
2,37458;;;275,0005991
2,37508;;;254,5525738
2,37558;;;240,5136311
2,37608;;;242,3447975
2,37658;;;237,1564926
2,37708;;;191,6825258
2,37758;;;79,98137262
2,37808;;;-90,62230128
2,37858;;;-262,1415584
2,37908;;;-343,3232709
2,37958;;;-287,7778887
2,38008;;;-151,6611828
2,38058;;;-50,94702828
2,38108;;;-47,28469539
2,38158;;;-99,4729391
2,38208;;;-135,1806848
2,38258;;;-144,9469059
2,38308;;;-175,1611522
2,38358;;;-243,2195051
2,38408;;;-300,9012482
2,38458;;;-292,0506104
2,38508;;;-220,635119
2,38558;;;-145,5572947
2,38608;;;-121,4469365
2,38658;;;-149,8300164
2,38708;;;-178,5182907
2,38758;;;-147,6936555
2,38808;;;-53,69377795
2,38858;;;37,55934995
2,38908;;;62,58529139
2,38958;;;34,81260028
2,39008;;;14,66976938
2,39057;;;22,29962957
2,39107;;;28,70871213
2,39157;;;29,62429535
2,39207;;;54,03984797
2,39257;;;88,52681604
2,39307;;;72,96190125
2,39357;;;12,83860293
2,39407;;;10,70224208
2,39457;;;120,8774233
2,39507;;;249,0590745
2,39557;;;275,610988
2,39607;;;222,8123554
2,39657;;;206,6370518
2,39707;;;268,5915166
2,39757;;;338,4810359
2,39807;;;336,9550639
2,39857;;;230,4422156
2,39907;;;22,60482398
2,39957;;;-217,8883693
2,40007;;;-351,8687143
2,40057;;;-305,4791643
2,40107;;;-196,8299552
2,40157;;;-212,7000644
2,40207;;;-359,1933801
2,40257;;;-456,5503961
2,40307;;;-386,9660712
2,40357;;;-228,875368
2,40407;;;-108,9339657
2,40457;;;-40,26522401
2,40507;;;30,53987858
2,40557;;;111,4163966
2,40607;;;177,6435831
2,40657;;;225,5591051
2,40707;;;242,9551863
2,40757;;;178,5591663
2,40807;;;21,68924075
2,40857;;;-135,4858792
2,40907;;;-187,3689285
2,40957;;;-143,1157394
2,41007;;;-100,0833279
2,41057;;;-104,9664384
2,41107;;;-104,9664384
2,41157;;;-45,45352894
2,41207;;;49,46193185
2,41257;;;111,721591
2,41307;;;107,4488693
2,41357;;;60,75412494
2,41407;;;16,80613023
2,41457;;;-0,589951009
2,41507;;;-2,115923047
2,41557;;;-8,830200017
2,41607;;;-28,36264211
2,41657;;;-47,8950842
2,41707;;;-53,99897236
2,41757;;;-49,42105624
2,41807;;;-47,28469539
2,41857;;;-53,99897236
2,41907;;;-59,18727729
2,41957;;;-45,45352894
2,42007;;;-4,557478309
2,42057;;;44,88401574
2,42107;;;61,66970816
2,42157;;;19,85807431
2,42207;;;-59,7976661
2,42257;;;-124,4988805
2,42307;;;-138,8430177
2,42357;;;-112,2911042
2,42407;;;-76,88855293
2,42457;;;-50,03144506
2,42507;;;-23,47953159
2,42557;;;12,53340852
2,42607;;;50,07232067
2,42657;;;68,07879072
2,42707;;;58,31256968
2,42757;;;43,3580437
2,42807;;;53,42945915
2,42857;;;86,39045519
2,42907;;;106,2280917
2,42957;;;91,27356571
2,43007;;;70,21515158
2,43057;;;84,86448315
2,43107;;;125,4553394
2,43157;;;142,2410318
2,43207;;;122,4033953
2,43257;;;120,2670344
2,43307;;;186,4942209
2,43357;;;293,0070692
2,43407;;;365,9485326
2,43457;;;374,7991705
2,43507;;;344,2797297
2,43557;;;296,6694021
2,43607;;;224,0331331
2,43657;;;128,5072834
2,43707;;;30,23468417
2,43757;;;-78,10933057
2,43807;;;-222,4662854
2,43857;;;-368,9596011
2,43907;;;-422,9790113
2,43957;;;-346,0700205
2,44007;;;-222,7714798
2,44057;;;-142,5053506
2,44107;;;-79,6353026
2,44157;;;39,08532199
2,44207;;;188,3253874
2,44257;;;269,5070998
2,44307;;;252,416213
2,44357;;;183,4422768
2,44407;;;76,01384532
2,44457;;;-89,70671806
2,44507;;;-251,1545597
2,44557;;;-292,0506104
2,44607;;;-220,9403134
2,44656;;;-191,6416502
2,44706;;;-276,1805012
2,44756;;;-347,901187
2,44806;;;-271,602585
2,44856;;;-112,901493
2,44906;;;-33,55094704
2,44956;;;-59,18727729
2,45006;;;-78,41452497
2,45056;;;-36,29769671
2,45106;;;-0,589951009
2,45156;;;-28,0574477
2,45206;;;-79,6353026
2,45256;;;-94,89502299
2,45306;;;-71,3950536
2,45356;;;-36,90808553
2,45406;;;1,546409845
2,45456;;;44,88401574
2,45506;;;73,87748447
2,45556;;;72,96190125
2,45606;;;55,87101442
2,45656;;;47,93595982
2,45706;;;51,90348712
2,45756;;;51,2930983
2,45806;;;37,55934995
2,45856;;;20,46846312
2,45906;;;17,11132464
2,45956;;;32,98143384
2,46006;;;60,44893053
2,46056;;;83,33851111
2,46106;;;85,16967756
2,46156;;;60,14373612
2,46206;;;25,35157365
2,46256;;;16,80613023
2,46306;;;53,73465356
2,46356;;;109,8904246
2,46406;;;143,4618094
2,46456;;;152,0072528
2,46506;;;171,8448893
2,46556;;;214,266912
2,46606;;;244,4811584
2,46656;;;236,8512982
2,46706;;;208,7734127
2,46756;;;171,8448893
2,46806;;;102,2605644
2,46856;;;-3,336700678
2,46906;;;-87,2651628
2,46956;;;-100,6937167
2,47006;;;-87,2651628
2,47056;;;-119,61577
2,47106;;;-182,7910124
2,47156;;;-195,6091775
2,47206;;;-145,8624891
2,47256;;;-111,375521
2,47306;;;-128,4664078
2,47356;;;-130,9079631
2,47406;;;-65,29116544
2,47456;;;7,345103591
2,47506;;;3,682770699
2,47556;;;-45,75872335
2,47606;;;-30,80419737
2,47656;;;76,62423414
2,47706;;;192,2929147
2,47756;;;246,6175192
2,47806;;;268,2863222
2,47856;;;304,2992623
2,47906;;;335,4290919
2,47956;;;322,9161212
2,48006;;;276,5265712
2,48056;;;213,6565232
2,48106;;;94,9358986
2,48156;;;-104,0508552
2,48206;;;-288,9986663
2,48256;;;-318,9077182
2,48306;;;-197,1351496
2,48356;;;-87,87555161
2,48406;;;-110,7651322
2,48456;;;-205,9857874
2,48506;;;-258,1740311
2,48556;;;-255,122087
2,48606;;;-244,7454772
2,48656;;;-209,0377315
2,48706;;;-92,45346773
2,48756;;;76,92942855
2,48806;;;203,5851077
2,48856;;;245,3967416
2,48906;;;237,461687
2,48956;;;199,0071916
2,49006;;;114,7735351
2,49056;;;7,650297999
2,49106;;;-61,01844373
2,49156;;;-95,5054118
2,49206;;;-172,4144025
2,49256;;;-311,5830525
2,49306;;;-416,5699287
2,49356;;;-392,7647649
2,49406;;;-268,550641
2,49456;;;-143,1157394
2,49506;;;-65,59635985
2,49556;;;-17,98603225
2,49606;;;19,24768549
2,49656;;;44,88401574
2,49706;;;54,95543119
2,49756;;;49,76712626
2,49806;;;26,26715687
2,49856;;;-7,304227978
2,49906;;;-23,47953159
2,49956;;;-9,135394425
2,50006;;;15,89054701
2,50056;;;35,4229891
2,50106;;;55,87101442
2,50156;;;71,1307348
2,50206;;;40,30609962
2,50256;;;-50,33663946
2,50305;;;-135,1806848
2,50355;;;-130,6027687
2,50405;;;-43,31716809
2,50455;;;33,28662825
2,50505;;;31,76065621
2,50555;;;-22,25875396
2,50605;;;-59,4924717
2,50655;;;-48,20027861
2,50705;;;-9,74578324
2,50755;;;20,77365753
2,50805;;;34,20221147
2,50855;;;44,57882133
2,50905;;;59,53334731
2,50955;;;60,14373612
2,51005;;;28,09832331
2,51055;;;-7,609422386
2,51105;;;19,85807431
2,51155;;;135,8319492
2,51205;;;275,610988
2,51255;;;345,1953129
2,51305;;;314,6758721
2,51355;;;228,0006604
2,51405;;;140,4098653
2,51455;;;78,15020618
2,51505;;;45,49440455
2,51555;;;20,77365753
2,51605;;;-44,84314013
2,51655;;;-176,9923187
2,51705;;;-313,4142189
2,51755;;;-348,8167702
2,51805;;;-259,0896143
2,51855;;;-141,284573
2,51905;;;-98,55735588
2,51955;;;-120,2261588
2,52005;;;-116,8690203
2,52055;;;-47,5898898
2,52105;;;33,28662825
2,52155;;;60,44893053
2,52205;;;37,86454436
2,52255;;;23,5204072
2,52305;;;48,24115422
2,52355;;;77,23462295
2,52405;;;63,1956802
2,52455;;;12,83860293
2,52505;;;-11,27175528
2,52555;;;28,40351772
2,52605;;;94,63070419
2,52655;;;124,5397561
2,52705;;;117,5202848
2,52755;;;127,2865058
2,52805;;;163,9098347
2,52855;;;160,2475018
2,52905;;;69,29956835
2,52955;;;-51,8626115
2,53005;;;-108,6287713
2,53055;;;-91,2326901
2,53105;;;-78,10933057
2,53155;;;-115,3430483
2,53205;;;-158,3754598
2,53255;;;-146,1676835
2,53305;;;-87,2651628
2,53355;;;-33,55094704
2,53405;;;-6,999033571
2,53455;;;14,36457497
2,53505;;;50,68270948
2,53555;;;94,9358986
2,53605;;;137,3579213
2,53655;;;180,6955272
2,53705;;;225,8642995
2,53755;;;257,6045179
2,53805;;;257,6045179
2,53855;;;225,5591051
2,53905;;;176,7279999
2,53955;;;121,4878121
2,54005;;;48,54634863
2,54055;;;-61,01844373
2,54105;;;-195,6091775
2,54155;;;-292,6609992
2,54205;;;-282,8947781
2,54255;;;-168,1416808
2,54305;;;-41,48600164
2,54355;;;0,02043780641
2,54405;;;-45,45352894
2,54455;;;-100,6937167
2,54505;;;-111,6807154
2,54555;;;-103,135272
2,54605;;;-113,2066875
2,54655;;;-115,9534371
2,54705;;;-58,88208288
2,54755;;;47,325571
2,54805;;;130,0332555
2,54855;;;149,870892
2,54905;;;145,9033647
2,54955;;;166,35139
2,55005;;;199,9227749
2,55055;;;205,7214686
2,55105;;;173,3708614
2,55155;;;111,721591
2,55205;;;18,94249108
2,55255;;;-82,99244109
2,55305;;;-122,3625197
2,55355;;;-46,97950098
2,55405;;;84,86448315
2,55455;;;161,7734739
2,55505;;;157,1955578
2,55555;;;143,156615
2,55605;;;158,4163354
2,55655;;;150,7864752
2,55705;;;80,28656703
2,55755;;;-11,88214409
2,55805;;;-86,65477398
2,55855;;;-173,3299858
2,55904;;;-289,9142495
2,55954;;;-362,855713
2,56004;;;-316,1609686
2,56054;;;-194,9987887
2,56104;;;-107,1027993
2,56154;;;-75,3625809
2,56204;;;-44,23275131
2,56254;;;-11,27175528
2,56304;;;-39,9600296
2,56354;;;-122,6677141
2,56404;;;-147,3884611
2,56454;;;-54,30416676
2,56504;;;60,75412494
2,56554;;;69,29956835
2,56604;;;-18,90161547
2,56654;;;-75,6677753
2,56704;;;-17,98603225
2,56754;;;110,8060078
2,56804;;;216,7084673
2,56854;;;246,9227136
2,56904;;;211,8253568
2,56954;;;154,1436137
2,57004;;;119,6566456
2,57054;;;126,0657282
2,57104;;;142,5462262
2,57154;;;114,4683407
2,57204;;;23,82560161
2,57254;;;-89,70671806
2,57304;;;-172,719597
2,57354;;;-209,3429259
2,57404;;;-223,9922574
2,57454;;;-238,0312002
2,57504;;;-249,9337821
2,57554;;;-249,6285877
2,57604;;;-234,0636729
2,57654;;;-205,3753986
2,57704;;;-155,9339045
2,57754;;;-77,19374734
2,57804;;;24,43599042
2,57854;;;121,1826177
2,57904;;;181,6111104
2,57954;;;193,5136923
2,58004;;;169,7085285
2,58054;;;129,1176723
2,58104;;;81,20215026
2,58154;;;35,72818351
2,58204;;;10,70224208
2,58254;;;13,14379734
2,58304;;;11,6178253
2,58354;;;-35,68730789
2,58404;;;-116,2586315
2,58454;;;-154,4079325
2,58504;;;-103,4404664
2,58554;;;-17,68083784
2,58604;;;3,987965107
2,58654;;;-54,30416676
2,58704;;;-105,8820217
2,58754;;;-66,20674866
2,58804;;;43,05284929
2,58854;;;129,1176723
2,58904;;;140,4098653
2,58954;;;118,1306736
2,59004;;;126,9813114
2,59054;;;170,0137229
2,59104;;;191,9877203
2,59154;;;161,4682795
2,59204;;;116,6047015
2,59254;;;110,195619
2,59304;;;142,8514206
2,59354;;;174,2864446
2,59404;;;176,1176111
2,59454;;;131,8644219
2,59504;;;18,94249108
2,59554;;;-151,3559884
2,59604;;;-283,5051669
2,59654;;;-268,8558354
2,59704;;;-124,1936861
2,59754;;;2,461993068
2,59804;;;5,208742737
2,59854;;;-68,64830393
2,59904;;;-110,7651322
2,59954;;;-101,6093
2,60004;;;-102,8300776
2,60054;;;-139,1482121
2,60104;;;-165,3949312
2,60154;;;-146,7780723
2,60204;;;-107,1027993
2,60254;;;-80,24569142
2,60304;;;-58,88208288
2,60354;;;-13,71331054
2,60404;;;54,65023678
2,60454;;;109,5852302
2,60504;;;116,6047015
2,60554;;;76,31903973
2,60604;;;22,29962957
2,60654;;;-1,81072864
2,60704;;;29,31910095
2,60754;;;110,195619
2,60804;;;207,8578295
2,60854;;;286,5979866
2,60904;;;329,3252037
2,60954;;;331,766759
2,61004;;;278,3577376
2,61054;;;152,6176417
2,61104;;;-19,20680988
2,61154;;;-165,7001256
2,61204;;;-234,9792561
2,61254;;;-248,4078101
2,61304;;;-253,9013094
2,61354;;;-253,2909206
2,61404;;;-219,4143413
2,61454;;;-168,4468752
2,61504;;;-146,1676835
2,61553;;;-152,2715716
2,61603;;;-141,8949618
2,61653;;;-112,901493
2,61703;;;-112,5962986
2,61753;;;-144,9469059
2,61803;;;-147,9988499
2,61853;;;-95,81060621
2,61903;;;-46,97950098
2,61953;;;-45,45352894
2,62003;;;-46,67430657
2,62053;;;2,15679866
2,62103;;;71,43592921
2,62153;;;95,54628742
2,62203;;;74,79306769
2,62253;;;50,37751508
2,62303;;;31,15026739
2,62353;;;6,734714776
2,62403;;;7,345103591
2,62453;;;71,74112362
2,62503;;;174,591639
2,62553;;;249,9746577
2,62603;;;272,8642383
2,62653;;;271,6434607
2,62703;;;274,6954047
2,62753;;;290,2603195
2,62803;;;314,3706777
2,62853;;;310,7083448
2,62903;;;214,8773008
2,62953;;;20,77365753
2,63003;;;-170,2780417
2,63053;;;-248,1026157
2,63103;;;-224,6026463
2,63153;;;-197,440344
2,63203;;;-209,6481203
2,63253;;;-213,6156476
2,63303;;;-168,7520697
2,63353;;;-99,77813351
2,63403;;;-50,64183387
2,63453;;;-32,33016941
2,63503;;;-26,22628126
2,63553;;;2,461993068
2,63603;;;77,84501177
2,63653;;;177,9487775
2,63703;;;249,6694633
2,63753;;;285,377209
2,63803;;;333,9031198
2,63853;;;396,162779
2,63903;;;384,2601971
2,63953;;;250,2798521
2,64003;;;86,39045519
2,64053;;;-5,473061532
2,64103;;;-80,24569142
2,64153;;;-250,5441709
2,64203;;;-462,0438955
2,64253;;;-519,4204441
2,64303;;;-359,8037689
2,64353;;;-150,7455996
2,64403;;;-71,700248
2,64453;;;-110,7651322
2,64503;;;-145,2521003
2,64553;;;-126,330047
2,64603;;;-88,18074602
2,64653;;;-42,09639046
2,64703;;;36,03337792
2,64753;;;121,1826177
2,64803;;;138,5786989
2,64853;;;67,46840191
2,64903;;;-10,05097765
2,64953;;;-10,35617206
2,65003;;;42,13726607
2,65053;;;52,81907034
2,65103;;;-5,77825594
2,65153;;;-54,30416676
2,65203;;;-20,1223931
2,65253;;;54,34504238
2,65303;;;74,48787329
2,65353;;;20,77365753
2,65403;;;-42,70677927
2,65453;;;-67,7327207
