"type";"begin_time";"frequency";"count";"created with version";"exported with version";"last_name";"first_name";"born";"sex";"measurement_date";"record_name"
"record";"0,00000";"2000.4";"94200";"Noraxon myoRESEARCH Software 4.2.22";"4.2.22";"MyoMetrics Demo Record";"";"";"male";"2025-12-02T12:17:20.230+01:00";"Free Capture-1"

"time";"Activity";"Marker";"BICEPS BR. LT (uV)"
0,00000;"Activity";;-2,416846869
0,00050;;;-10,35190147
0,00100;;;-10,96229028
0,00150;;;-4,85840213
0,00200;;;3,07665247
0,00250;;;10,40131825
0,00300;;;18,94676167
0,00350;;;27,79739949
0,00400;;;31,45973239
0,00450;;;27,49220509
0,00500;;;19,25195608
0,00550;;;9,485735032
0,00600;;;-0,5856804226
0,00650;;;-10,96229028
0,00700;;;-18,28695607
0,00750;;;-20,11812252
0,00800;;;-18,89734488
0,00850;;;-18,59215048
0,00900;;;-18,28695607
0,00950;;;-14,62462318
0,01000;;;-8,825929431
0,01050;;;-3,942818907
0,01100;;;-2,416846869
0,01150;;;-2,111652461
0,01200;;;-3,332430092
0,01250;;;-7,6051518
0,01300;;;-15,84540081
0,01350;;;-23,78045541
0,01400;;;-26,22201067
0,01450;;;-22,55967778
0,01500;;;-15,84540081
0,01550;;;-8,825929431
0,01600;;;-2,416846869
0,01650;;;2,161069247
0,01700;;;4,907818916
0,01750;;;6,433790955
0,01800;;;8,264957401
0,01850;;;9,790929439
0,01900;;;8,875346216
0,01950;;;6,738985362
0,02000;;;6,433790955
0,02050;;;7,654568585
0,02100;;;7,654568585
0,02150;;;4,297430101
0,02200;;;0,02470839283
0,02250;;;-1,806458053
0,02300;;;-2,416846869
0,02350;;;-2,722041276
0,02400;;;-3,027235684
0,02450;;;-1,806458053
0,02500;;;0,9402916159
0,02550;;;4,297430101
0,02600;;;6,738985362
0,02650;;;7,654568585
0,02700;;;7,04417977
0,02750;;;5,518207731
0,02800;;;3,381846878
0,02849;;;2,161069247
0,02899;;;1,245486024
0,02949;;;-0,2804860149
0,02999;;;-1,501263646
0,03049;;;-0,2804860149
0,03099;;;3,381846878
0,03149;;;6,738985362
0,03199;;;5,823402139
0,03249;;;3,07665247
0,03299;;;5,823402139
0,03349;;;17,72598404
0,03399;;;32,0701212
0,03449;;;37,86881495
0,03499;;;32,37531561
0,03549;;;22,60909456
0,03599;;;15,28442878
0,03649;;;8,875346216
0,03699;;;-0,5856804226
0,03749;;;-10,96229028
0,03799;;;-15,84540081
0,03849;;;-13,40384555
0,03899;;;-10,04670706
0,03949;;;-11,5726791
0,03999;;;-17,06617844
0,04049;;;-23,17006659
0,04099;;;-29,27395475
0,04149;;;-34,15706527
0,04199;;;-35,68303731
0,04249;;;-32,32589882
0,04299;;;-25,91681626
0,04349;;;-21,64409455
0,04399;;;-21,33890015
0,04449;;;-22,25448337
0,04499;;;-21,03370574
0,04549;;;-16,45578962
0,04599;;;-11,26748469
0,04649;;;-8,215540615
0,04699;;;-6,994762984
0,04749;;;-3,942818907
0,04799;;;4,907818916
0,04849;;;18,33637285
0,04899;;;31,15453798
0,04949;;;40,0051758
0,04999;;;46,71945277
0,05049;;;54,04411856
0,05099;;;61,06358993
0,05149;;;64,72592283
0,05199;;;64,42072842
0,05249;;;60,45320112
0,05299;;;53,73892415
0,05349;;;46,10906396
0,05399;;;39,39478699
0,05449;;;33,90128765
0,05499;;;28,40778831
0,05549;;;21,38831693
0,05599;;;14,97923437
0,05649;;;11,31690148
0,05699;;;8,570151808
0,05749;;;3,687041285
0,05799;;;-1,806458053
0,05849;;;-5,773985354
0,05899;;;-8,215540615
0,05949;;;-12,79345673
0,05999;;;-19,81292811
0,06049;;;-25,61162185
0,06099;;;-28,35837152
0,06149;;;-30,49473238
0,06199;;;-33,54667645
0,06249;;;-34,76745409
0,06299;;;-32,02070442
0,06349;;;-27,74798271
0,06399;;;-27,13759389
0,06449;;;-32,02070442
0,06499;;;-39,95575902
0,06549;;;-45,44925835
0,06599;;;-46,05964717
0,06649;;;-40,87134224
0,06699;;;-32,93628764
0,06749;;;-25,61162185
0,06799;;;-19,5077337
0,06849;;;-13,40384555
0,06899;;;-6,384374169
0,06949;;;0,02470839283
0,06999;;;5,213013324
0,07049;;;8,570151808
0,07099;;;10,40131825
0,07149;;;11,01170707
0,07199;;;10,70651266
0,07249;;;10,09612385
0,07299;;;9,180540624
0,07349;;;7,654568585
0,07399;;;6,738985362
0,07449;;;6,738985362
0,07499;;;7,04417977
0,07549;;;6,128596547
0,07599;;;4,297430101
0,07649;;;3,687041285
0,07699;;;3,687041285
0,07749;;;3,07665247
0,07799;;;1,855874839
0,07849;;;1,245486024
0,07899;;;0,6350972082
0,07949;;;-0,8908748303
0,07999;;;-3,6376245
0,08049;;;-5,773985354
0,08099;;;-6,689568577
0,08149;;;-8,215540615
0,08199;;;-9,741512654
0,08249;;;-9,741512654
0,08299;;;-8,825929431
0,08349;;;-9,131123838
0,08399;;;-10,65709588
0,08448;;;-11,26748469
0,08498;;;-10,35190147
0,08548;;;-9,741512654
0,08598;;;-10,04670706
0,08648;;;-10,04670706
0,08698;;;-8,215540615
0,08748;;;-6,384374169
0,08798;;;-6,384374169
0,08848;;;-7,299957392
0,08898;;;-7,910346207
0,08948;;;-6,994762984
0,08998;;;-4,85840213
0,09048;;;-2,416846869
0,09098;;;-0,2804860149
0,09148;;;0,6350972082
0,09198;;;1,855874839
0,09248;;;3,381846878
0,09298;;;4,297430101
0,09348;;;3,992235693
0,09398;;;6,128596547
0,09448;;;13,75845674
0,09498;;;24,1350666
0,09548;;;31,15453798
0,09598;;;31,15453798
0,09648;;;25,66103864
0,09698;;;18,64156726
0,09748;;;9,790929439
0,09798;;;0,02470839283
0,09848;;;-8,215540615
0,09898;;;-14,01423436
0,09948;;;-17,98176166
0,09998;;;-21,03370574
0,10048;;;-22,86487218
0,10098;;;-23,475261
0,10148;;;-23,17006659
0,10198;;;-21,94928896
0,10248;;;-19,20253929
0,10298;;;-15,5402064
0,10348;;;-13,09865114
0,10398;;;-12,48826232
0,10448;;;-11,26748469
0,10498;;;-7,910346207
0,10548;;;-4,85840213
0,10598;;;-4,248013315
0,10648;;;-3,6376245
0,10698;;;-1,196069238
0,10748;;;1,550680431
0,10798;;;1,550680431
0,10848;;;-0,5856804226
0,10898;;;-1,501263646
0,10948;;;-0,2804860149
0,10998;;;0,3299028005
0,11048;;;-0,2804860149
0,11098;;;-0,2804860149
0,11148;;;2,771458062
0,11198;;;7,349374178
0,11248;;;10,09612385
0,11298;;;11,01170707
0,11348;;;11,31690148
0,11398;;;12,2324847
0,11448;;;11,62209589
0,11498;;;9,180540624
0,11548;;;6,433790955
0,11598;;;3,992235693
0,11648;;;2,161069247
0,11698;;;0,3299028005
0,11748;;;-0,5856804226
0,11798;;;-1,501263646
0,11848;;;-1,806458053
0,11898;;;-1,806458053
0,11948;;;-0,8908748303
0,11998;;;1,855874839
0,12048;;;5,823402139
0,12098;;;6,738985362
0,12148;;;0,9402916159
0,12198;;;-9,741512654
0,12248;;;-21,64409455
0,12298;;;-30,18953797
0,12348;;;-33,85187086
0,12398;;;-32,63109323
0,12448;;;-27,4427883
0,12498;;;-20,42331692
0,12548;;;-14,01423436
0,12598;;;-8,520735023
0,12648;;;-2,111652461
0,12698;;;4,907818916
0,12748;;;11,01170707
0,12798;;;14,36884555
0,12848;;;15,58962319
0,12898;;;16,200012
0,12948;;;15,89481759
0,12998;;;15,58962319
0,13048;;;15,28442878
0,13098;;;14,67403996
0,13148;;;12,2324847
0,13198;;;11,01170707
0,13248;;;14,97923437
0,13298;;;21,99870575
0,13348;;;25,96623305
0,13398;;;25,05064982
0,13448;;;27,49220509
0,13498;;;38,47920376
0,13548;;;50,38178566
0,13598;;;51,29736889
0,13648;;;40,61556462
0,13698;;;27,79739949
0,13748;;;16,50520641
0,13798;;;2,161069247
0,13848;;;-19,20253929
0,13898;;;-43,61809191
0,13948;;;-61,62456196
0,13998;;;-67,72845012
0,14048;;;-62,54014519
0,14097;;;-50,94275769
0,14147;;;-38,12459257
0,14197;;;-27,74798271
0,14247;;;-18,89734488
0,14297;;;-10,35190147
0,14347;;;-2,111652461
0,14397;;;3,687041285
0,14447;;;5,823402139
0,14497;;;5,213013324
0,14547;;;2,466263654
0,14597;;;0,02470839283
0,14647;;;0,02470839283
0,14697;;;1,245486024
0,14747;;;-0,2804860149
0,14797;;;-7,6051518
0,14847;;;-16,76098403
0,14897;;;-22,86487218
0,14947;;;-25,30642745
0,14997;;;-25,61162185
0,15047;;;-24,69603863
0,15097;;;-21,33890015
0,15147;;;-13,70903995
0,15197;;;-2,111652461
0,15247;;;11,01170707
0,15297;;;22,30390016
0,15347;;;29,01817712
0,15397;;;32,98570442
0,15447;;;35,73245409
0,15497;;;36,64803732
0,15547;;;33,59609324
0,15597;;;27,18701068
0,15647;;;20,77792812
0,15697;;;16,81040082
0,15747;;;14,36884555
0,15797;;;13,14806792
0,15847;;;13,75845674
0,15897;;;14,36884555
0,15947;;;11,92729029
0,15997;;;7,654568585
0,16047;;;6,128596547
0,16097;;;7,04417977
0,16147;;;6,433790955
0,16197;;;3,07665247
0,16247;;;1,855874839
0,16297;;;6,128596547
0,16347;;;11,31690148
0,16397;;;12,84287352
0,16447;;;11,62209589
0,16497;;;11,92729029
0,16547;;;13,75845674
0,16597;;;13,45326233
0,16647;;;10,09612385
0,16697;;;5,518207731
0,16747;;;1,245486024
0,16797;;;-2,416846869
0,16847;;;-6,689568577
0,16897;;;-10,04670706
0,16947;;;-12,48826232
0,16997;;;-14,92981758
0,17047;;;-17,06617844
0,17097;;;-18,28695607
0,17147;;;-17,98176166
0,17197;;;-15,84540081
0,17247;;;-13,40384555
0,17297;;;-10,65709588
0,17347;;;-9,436318246
0,17397;;;-10,04670706
0,17447;;;-10,65709588
0,17497;;;-9,741512654
0,17547;;;-7,910346207
0,17597;;;-6,384374169
0,17647;;;-5,773985354
0,17697;;;-4,85840213
0,17747;;;-3,942818907
0,17797;;;-3,6376245
0,17847;;;-3,332430092
0,17897;;;-2,111652461
0,17947;;;-0,5856804226
0,17997;;;-0,8908748303
0,18047;;;-3,332430092
0,18097;;;-5,468790946
0,18147;;;-5,773985354
0,18197;;;-4,553207723
0,18247;;;-3,027235684
0,18297;;;-1,501263646
0,18347;;;-0,8908748303
0,18397;;;-2,722041276
0,18447;;;-5,468790946
0,18497;;;-6,079179761
0,18547;;;-2,722041276
0,18597;;;0,9402916159
0,18647;;;2,771458062
0,18697;;;3,687041285
0,18747;;;5,213013324
0,18797;;;7,349374178
0,18847;;;8,264957401
0,18897;;;7,654568585
0,18947;;;7,04417977
0,18997;;;5,823402139
0,19047;;;3,687041285
0,19097;;;1,855874839
0,19147;;;1,855874839
0,19197;;;3,07665247
0,19247;;;2,771458062
0,19297;;;0,3299028005
0,19347;;;-2,722041276
0,19397;;;-6,079179761
0,19447;;;-10,04670706
0,19497;;;-12,79345673
0,19547;;;-12,48826232
0,19597;;;-9,436318246
0,19647;;;-6,384374169
0,19696;;;-4,553207723
0,19746;;;-1,806458053
0,19796;;;1,855874839
0,19846;;;5,518207731
0,19896;;;6,738985362
0,19946;;;6,738985362
0,19996;;;7,654568585
0,20046;;;9,790929439
0,20096;;;11,31690148
0,20146;;;11,62209589
0,20196;;;12,2324847
0,20246;;;11,92729029
0,20296;;;9,180540624
0,20346;;;4,907818916
0,20396;;;1,550680431
0,20446;;;0,9402916159
0,20496;;;0,9402916159
0,20546;;;-0,8908748303
0,20596;;;-4,85840213
0,20646;;;-8,215540615
0,20696;;;-8,520735023
0,20746;;;-7,299957392
0,20796;;;-6,079179761
0,20846;;;-5,468790946
0,20896;;;-4,553207723
0,20946;;;-3,027235684
0,20996;;;-1,501263646
0,21046;;;-0,5856804226
0,21096;;;-1,196069238
0,21146;;;-3,942818907
0,21196;;;-9,131123838
0,21246;;;-15,23501199
0,21296;;;-18,59215048
0,21346;;;-18,28695607
0,21396;;;-16,45578962
0,21446;;;-17,67656725
0,21496;;;-22,25448337
0,21546;;;-25,61162185
0,21596;;;-23,78045541
0,21646;;;-17,06617844
0,21696;;;-8,825929431
0,21746;;;-1,501263646
0,21796;;;4,297430101
0,21846;;;11,31690148
0,21896;;;19,25195608
0,21946;;;26,57662186
0,21996;;;29,93376035
0,22046;;;29,01817712
0,22096;;;26,88181627
0,22146;;;26,88181627
0,22196;;;27,49220509
0,22246;;;25,96623305
0,22296;;;21,38831693
0,22346;;;16,50520641
0,22396;;;13,75845674
0,22446;;;11,01170707
0,22496;;;7,349374178
0,22546;;;5,518207731
0,22596;;;6,433790955
0,22646;;;5,823402139
0,22696;;;-0,2804860149
0,22746;;;-10,65709588
0,22796;;;-18,59215048
0,22846;;;-19,81292811
0,22896;;;-16,45578962
0,22946;;;-10,65709588
0,22996;;;-3,332430092
0,23046;;;4,297430101
0,23096;;;10,09612385
0,23146;;;12,84287352
0,23196;;;14,67403996
0,23246;;;17,11559522
0,23296;;;18,94676167
0,23346;;;17,42078963
0,23396;;;13,45326233
0,23446;;;10,40131825
0,23496;;;8,875346216
0,23546;;;7,04417977
0,23596;;;4,602624508
0,23646;;;4,297430101
0,23696;;;8,875346216
0,23746;;;15,28442878
0,23796;;;18,64156726
0,23846;;;17,72598404
0,23896;;;14,06365115
0,23946;;;8,570151808
0,23996;;;0,9402916159
0,24046;;;-7,299957392
0,24096;;;-10,35190147
0,24146;;;-5,773985354
0,24196;;;0,9402916159
0,24246;;;3,381846878
0,24296;;;0,02470839283
0,24346;;;-4,85840213
0,24396;;;-9,436318246
0,24446;;;-14,92981758
0,24496;;;-21,03370574
0,24546;;;-26,52720508
0,24596;;;-30,49473238
0,24646;;;-34,15706527
0,24696;;;-36,29342612
0,24746;;;-34,76745409
0,24796;;;-32,63109323
0,24846;;;-34,76745409
0,24896;;;-41,78692546
0,24946;;;-47,89081362
0,24996;;;-50,02717447
0,25046;;;-51,85834092
0,25096;;;-54,29989618
0,25146;;;-50,02717447
0,25196;;;-32,93628764
0,25246;;;-7,910346207
0,25296;;;13,14806792
0,25345;;;25,35584423
0,25395;;;31,15453798
0,25445;;;32,68051002
0,25495;;;28,40778831
0,25545;;;20,47273371
0,25595;;;14,36884555
0,25645;;;12,2324847
0,25695;;;12,2324847
0,25745;;;12,53767911
0,25795;;;14,97923437
0,25845;;;19,55715049
0,25895;;;21,99870575
0,25945;;;21,38831693
0,25995;;;20,47273371
0,26045;;;21,08312252
0,26095;;;21,69351134
0,26145;;;20,47273371
0,26195;;;18,64156726
0,26245;;;16,50520641
0,26295;;;11,92729029
0,26345;;;6,738985362
0,26395;;;7,04417977
0,26445;;;15,58962319
0,26495;;;25,66103864
0,26545;;;27,18701068
0,26595;;;19,55715049
0,26645;;;10,40131825
0,26695;;;2,466263654
0,26745;;;-5,163596538
0,26795;;;-14,31942877
0,26845;;;-21,64409455
0,26895;;;-25,61162185
0,26945;;;-29,88434356
0,26995;;;-37,51420375
0,27045;;;-46,97523039
0,27095;;;-54,29989618
0,27145;;;-56,43625703
0,27195;;;-52,46872973
0,27245;;;-41,78692546
0,27295;;;-25,61162185
0,27345;;;-9,131123838
0,27395;;;2,466263654
0,27445;;;9,790929439
0,27495;;;14,36884555
0,27545;;;17,72598404
0,27595;;;19,55715049
0,27645;;;19,86234489
0,27695;;;18,03117845
0,27745;;;14,36884555
0,27795;;;10,40131825
0,27845;;;8,264957401
0,27895;;;7,349374178
0,27945;;;5,213013324
0,27995;;;1,550680431
0,28045;;;-0,5856804226
0,28095;;;0,3299028005
0,28145;;;2,161069247
0,28195;;;-0,2804860149
0,28245;;;-8,520735023
0,28295;;;-17,67656725
0,28345;;;-22,55967778
0,28395;;;-21,03370574
0,28445;;;-14,92981758
0,28495;;;-6,689568577
0,28545;;;0,3299028005
0,28595;;;5,518207731
0,28645;;;9,180540624
0,28695;;;11,31690148
0,28745;;;11,92729029
0,28795;;;9,485735032
0,28845;;;4,297430101
0,28895;;;-0,5856804226
0,28945;;;-3,332430092
0,28995;;;-2,722041276
0,29045;;;0,02470839283
0,29095;;;3,381846878
0,29145;;;6,738985362
0,29195;;;10,09612385
0,29245;;;13,45326233
0,29295;;;15,58962319
0,29345;;;16,200012
0,29395;;;15,58962319
0,29445;;;14,97923437
0,29495;;;14,36884555
0,29545;;;14,06365115
0,29595;;;13,45326233
0,29645;;;13,14806792
0,29695;;;13,14806792
0,29745;;;12,53767911
0,29795;;;10,40131825
0,29845;;;7,654568585
0,29895;;;4,602624508
0,29945;;;2,466263654
0,29995;;;0,6350972082
0,30045;;;-0,2804860149
0,30095;;;-1,806458053
0,30145;;;-4,85840213
0,30195;;;-9,741512654
0,30245;;;-13,09865114
0,30295;;;-13,40384555
0,30345;;;-11,87787351
0,30395;;;-10,35190147
0,30445;;;-9,436318246
0,30495;;;-7,299957392
0,30545;;;-3,942818907
0,30595;;;-1,806458053
0,30645;;;-2,416846869
0,30695;;;-3,6376245
0,30745;;;-3,027235684
0,30795;;;-1,196069238
0,30845;;;-0,2804860149
0,30895;;;-0,8908748303
0,30944;;;-0,5856804226
0,30994;;;0,3299028005
0,31044;;;0,9402916159
0,31094;;;-0,5856804226
0,31144;;;-3,6376245
0,31194;;;-6,994762984
0,31244;;;-8,825929431
0,31294;;;-8,520735023
0,31344;;;-5,468790946
0,31394;;;-1,806458053
0,31444;;;0,02470839283
0,31494;;;-0,2804860149
0,31544;;;-1,806458053
0,31594;;;-3,332430092
0,31644;;;-4,553207723
0,31694;;;-5,163596538
0,31744;;;-3,6376245
0,31794;;;-1,501263646
0,31844;;;-0,5856804226
0,31894;;;-1,501263646
0,31944;;;-2,416846869
0,31994;;;-1,196069238
0,32044;;;0,6350972082
0,32094;;;1,245486024
0,32144;;;0,3299028005
0,32194;;;0,3299028005
0,32244;;;2,466263654
0,32294;;;4,602624508
0,32344;;;5,213013324
0,32394;;;6,128596547
0,32444;;;8,875346216
0,32494;;;13,75845674
0,32544;;;17,42078963
0,32594;;;18,33637285
0,32644;;;17,72598404
0,32694;;;18,33637285
0,32744;;;19,55715049
0,32794;;;18,64156726
0,32844;;;14,06365115
0,32894;;;7,654568585
0,32944;;;2,161069247
0,32994;;;-0,5856804226
0,33044;;;-1,196069238
0,33094;;;-0,2804860149
0,33144;;;1,550680431
0,33194;;;2,771458062
0,33244;;;3,07665247
0,33294;;;4,297430101
0,33344;;;7,654568585
0,33394;;;10,09612385
0,33444;;;10,09612385
0,33494;;;8,264957401
0,33544;;;7,04417977
0,33594;;;6,128596547
0,33644;;;4,907818916
0,33694;;;3,687041285
0,33744;;;3,992235693
0,33794;;;4,907818916
0,33844;;;3,687041285
0,33894;;;-0,2804860149
0,33944;;;-3,942818907
0,33994;;;-5,773985354
0,34044;;;-6,079179761
0,34094;;;-6,079179761
0,34144;;;-5,468790946
0,34194;;;-4,248013315
0,34244;;;-3,942818907
0,34294;;;-3,6376245
0,34344;;;-1,501263646
0,34394;;;2,466263654
0,34444;;;4,907818916
0,34494;;;3,687041285
0,34544;;;-0,2804860149
0,34594;;;-2,722041276
0,34644;;;-3,027235684
0,34694;;;-3,332430092
0,34744;;;-5,468790946
0,34794;;;-8,825929431
0,34844;;;-11,87787351
0,34894;;;-14,31942877
0,34944;;;-16,45578962
0,34994;;;-17,98176166
0,35044;;;-17,06617844
0,35094;;;-14,62462318
0,35144;;;-12,48826232
0,35194;;;-12,18306792
0,35244;;;-12,48826232
0,35294;;;-11,26748469
0,35344;;;-9,741512654
0,35394;;;-10,96229028
0,35444;;;-14,31942877
0,35494;;;-17,06617844
0,35544;;;-16,76098403
0,35594;;;-15,5402064
0,35644;;;-14,01423436
0,35694;;;-10,96229028
0,35744;;;-4,553207723
0,35794;;;2,466263654
0,35844;;;5,823402139
0,35894;;;4,602624508
0,35944;;;1,550680431
0,35994;;;-0,2804860149
0,36044;;;-1,501263646
0,36094;;;-2,416846869
0,36144;;;-3,332430092
0,36194;;;-5,468790946
0,36244;;;-8,825929431
0,36294;;;-12,18306792
0,36344;;;-13,70903995
0,36394;;;-12,79345673
0,36444;;;-11,26748469
0,36494;;;-9,436318246
0,36544;;;-7,6051518
0,36593;;;-4,85840213
0,36643;;;-3,027235684
0,36693;;;-3,942818907
0,36743;;;-7,910346207
0,36793;;;-12,48826232
0,36843;;;-14,01423436
0,36893;;;-11,87787351
0,36943;;;-7,910346207
0,36993;;;-4,553207723
0,37043;;;-1,196069238
0,37093;;;4,297430101
0,37143;;;11,31690148
0,37193;;;17,42078963
0,37243;;;21,08312252
0,37293;;;23,52467779
0,37343;;;24,44026101
0,37393;;;23,52467779
0,37443;;;21,08312252
0,37493;;;18,64156726
0,37543;;;16,200012
0,37593;;;11,92729029
0,37643;;;7,349374178
0,37693;;;6,128596547
0,37743;;;7,04417977
0,37793;;;4,297430101
0,37843;;;-3,6376245
0,37893;;;-11,5726791
0,37943;;;-12,18306792
0,37993;;;-6,994762984
0,38043;;;-1,501263646
0,38093;;;1,245486024
0,38143;;;4,907818916
0,38193;;;11,62209589
0,38243;;;19,25195608
0,38293;;;24,1350666
0,38343;;;25,66103864
0,38393;;;23,21948338
0,38443;;;18,64156726
0,38493;;;14,06365115
0,38543;;;11,01170707
0,38593;;;8,570151808
0,38643;;;5,518207731
0,38693;;;2,161069247
0,38743;;;-0,2804860149
0,38793;;;-2,111652461
0,38843;;;-5,163596538
0,38893;;;-7,6051518
0,38943;;;-8,215540615
0,38993;;;-6,384374169
0,39043;;;-5,163596538
0,39093;;;-5,468790946
0,39143;;;-5,773985354
0,39193;;;-5,468790946
0,39243;;;-6,689568577
0,39293;;;-11,26748469
0,39343;;;-18,59215048
0,39393;;;-26,22201067
0,39443;;;-31,4103156
0,39493;;;-32,63109323
0,39543;;;-31,4103156
0,39593;;;-29,27395475
0,39643;;;-26,52720508
0,39693;;;-21,33890015
0,39743;;;-14,01423436
0,39793;;;-6,384374169
0,39843;;;-2,722041276
0,39893;;;-3,027235684
0,39943;;;-3,942818907
0,39993;;;-2,722041276
0,40043;;;0,3299028005
0,40093;;;3,992235693
0,40143;;;6,738985362
0,40193;;;8,875346216
0,40243;;;10,40131825
0,40293;;;11,01170707
0,40343;;;10,40131825
0,40393;;;9,790929439
0,40443;;;9,485735032
0,40493;;;7,959762993
0,40543;;;5,518207731
0,40593;;;3,687041285
0,40643;;;4,602624508
0,40693;;;7,04417977
0,40743;;;7,04417977
0,40793;;;2,466263654
0,40843;;;-3,027235684
0,40893;;;-5,773985354
0,40943;;;-4,553207723
0,40993;;;-1,501263646
0,41043;;;2,161069247
0,41093;;;5,823402139
0,41143;;;8,570151808
0,41193;;;10,09612385
0,41243;;;11,92729029
0,41293;;;14,06365115
0,41343;;;16,200012
0,41393;;;16,50520641
0,41443;;;14,67403996
0,41493;;;10,40131825
0,41543;;;5,518207731
0,41593;;;3,381846878
0,41643;;;6,128596547
0,41693;;;11,62209589
0,41743;;;14,67403996
0,41793;;;13,45326233
0,41843;;;11,62209589
0,41893;;;10,40131825
0,41943;;;8,264957401
0,41993;;;4,297430101
0,42043;;;0,02470839283
0,42093;;;-3,6376245
0,42143;;;-9,436318246
0,42192;;;-18,89734488
0,42242;;;-28,35837152
0,42292;;;-35,3778429
0,42342;;;-40,56614783
0,42392;;;-45,75445276
0,42442;;;-46,97523039
0,42492;;;-40,56614783
0,42542;;;-29,27395475
0,42592;;;-18,89734488
0,42642;;;-10,35190147
0,42692;;;-0,5856804226
0,42742;;;9,485735032
0,42792;;;16,81040082
0,42842;;;21,08312252
0,42892;;;26,27142746
0,42942;;;30,84934357
0,42992;;;29,01817712
0,43042;;;19,86234489
0,43092;;;10,09612385
0,43142;;;6,128596547
0,43192;;;5,213013324
0,43242;;;3,687041285
0,43292;;;2,466263654
0,43342;;;3,992235693
0,43392;;;6,738985362
0,43442;;;8,264957401
0,43492;;;11,01170707
0,43542;;;15,58962319
0,43592;;;17,11559522
0,43642;;;13,45326233
0,43692;;;11,92729029
0,43742;;;21,38831693
0,43792;;;37,86881495
0,43842;;;48,85581363
0,43892;;;47,63503599
0,43942;;;38,47920376
0,43992;;;28,71298272
0,44042;;;18,94676167
0,44092;;;7,349374178
0,44142;;;-4,248013315
0,44192;;;-13,70903995
0,44242;;;-21,33890015
0,44292;;;-28,66356593
0,44342;;;-34,76745409
0,44392;;;-37,81939816
0,44442;;;-37,20900935
0,44492;;;-33,54667645
0,44542;;;-29,27395475
0,44592;;;-25,30642745
0,44642;;;-21,64409455
0,44692;;;-17,37137285
0,44742;;;-13,40384555
0,44792;;;-10,96229028
0,44842;;;-10,04670706
0,44892;;;-9,741512654
0,44942;;;-8,215540615
0,44992;;;-6,994762984
0,45042;;;-6,689568577
0,45092;;;-7,299957392
0,45142;;;-7,299957392
0,45192;;;-6,689568577
0,45242;;;-6,079179761
0,45292;;;-5,468790946
0,45342;;;-4,85840213
0,45392;;;-4,248013315
0,45442;;;-3,6376245
0,45492;;;-2,111652461
0,45542;;;-1,501263646
0,45592;;;-2,722041276
0,45642;;;-4,85840213
0,45692;;;-5,773985354
0,45742;;;-3,942818907
0,45792;;;-0,8908748303
0,45842;;;0,9402916159
0,45892;;;1,855874839
0,45942;;;2,466263654
0,45992;;;2,161069247
0,46042;;;2,771458062
0,46092;;;3,687041285
0,46142;;;3,381846878
0,46192;;;0,02470839283
0,46242;;;-4,248013315
0,46292;;;-6,384374169
0,46342;;;-5,773985354
0,46392;;;-5,773985354
0,46442;;;-6,994762984
0,46492;;;-5,163596538
0,46542;;;0,9402916159
0,46592;;;6,738985362
0,46642;;;7,654568585
0,46692;;;7,654568585
0,46742;;;10,70651266
0,46792;;;14,97923437
0,46842;;;15,89481759
0,46892;;;15,58962319
0,46942;;;19,25195608
0,46992;;;25,05064982
0,47042;;;25,66103864
0,47092;;;19,86234489
0,47142;;;12,84287352
0,47192;;;8,264957401
0,47242;;;3,381846878
0,47292;;;-3,027235684
0,47342;;;-8,215540615
0,47392;;;-10,65709588
0,47442;;;-12,79345673
0,47492;;;-15,84540081
0,47542;;;-16,76098403
0,47592;;;-13,40384555
0,47642;;;-8,825929431
0,47692;;;-6,384374169
0,47742;;;-3,942818907
0,47792;;;-0,2804860149
0,47841;;;2,771458062
0,47891;;;3,687041285
0,47941;;;3,687041285
0,47991;;;5,823402139
0,48041;;;6,738985362
0,48091;;;1,550680431
0,48141;;;-7,910346207
0,48191;;;-15,23501199
0,48241;;;-15,84540081
0,48291;;;-10,96229028
0,48341;;;-4,248013315
0,48391;;;2,466263654
0,48441;;;8,570151808
0,48491;;;14,36884555
0,48541;;;18,64156726
0,48591;;;21,08312252
0,48641;;;21,99870575
0,48691;;;21,08312252
0,48741;;;18,33637285
0,48791;;;11,62209589
0,48841;;;2,771458062
0,48891;;;-4,553207723
0,48941;;;-8,215540615
0,48991;;;-10,35190147
0,49041;;;-13,70903995
0,49091;;;-17,98176166
0,49141;;;-20,42331692
0,49191;;;-21,33890015
0,49241;;;-21,94928896
0,49291;;;-19,20253929
0,49341;;;-10,35190147
0,49391;;;0,02470839283
0,49441;;;5,213013324
0,49491;;;3,992235693
0,49541;;;3,381846878
0,49591;;;6,738985362
0,49641;;;8,875346216
0,49691;;;4,602624508
0,49741;;;-2,416846869
0,49791;;;-6,079179761
0,49841;;;-5,773985354
0,49891;;;-3,6376245
0,49941;;;-1,196069238
0,49991;;;2,771458062
0,50041;;;8,264957401
0,50091;;;12,84287352
0,50141;;;16,50520641
0,50191;;;19,55715049
0,50241;;;21,08312252
0,50291;;;19,86234489
0,50341;;;15,58962319
0,50391;;;10,09612385
0,50441;;;6,738985362
0,50491;;;7,04417977
0,50541;;;8,875346216
0,50591;;;8,570151808
0,50641;;;4,602624508
0,50691;;;0,02470839283
0,50741;;;-0,2804860149
0,50791;;;0,02470839283
0,50841;;;-1,806458053
0,50891;;;-6,384374169
0,50941;;;-8,520735023
0,50991;;;-5,163596538
0,51041;;;-0,2804860149
0,51091;;;2,771458062
0,51141;;;3,07665247
0,51191;;;0,9402916159
0,51241;;;-2,111652461
0,51291;;;-5,468790946
0,51341;;;-7,6051518
0,51391;;;-10,65709588
0,51441;;;-18,59215048
0,51491;;;-29,27395475
0,51541;;;-35,98823172
0,51591;;;-34,15706527
0,51641;;;-27,13759389
0,51691;;;-20,72851133
0,51741;;;-17,67656725
0,51791;;;-15,5402064
0,51841;;;-11,5726791
0,51891;;;-5,773985354
0,51941;;;-0,2804860149
0,51991;;;2,161069247
0,52041;;;2,771458062
0,52091;;;3,992235693
0,52141;;;7,349374178
0,52191;;;11,31690148
0,52241;;;12,84287352
0,52291;;;11,62209589
0,52341;;;9,180540624
0,52391;;;6,128596547
0,52441;;;2,771458062
0,52491;;;0,9402916159
0,52541;;;1,855874839
0,52591;;;4,907818916
0,52641;;;7,654568585
0,52691;;;7,654568585
0,52741;;;5,213013324
0,52791;;;2,161069247
0,52841;;;-0,2804860149
0,52891;;;-0,5856804226
0,52941;;;-0,2804860149
0,52991;;;0,02470839283
0,53041;;;1,855874839
0,53091;;;4,907818916
0,53141;;;7,349374178
0,53191;;;7,959762993
0,53241;;;7,654568585
0,53291;;;7,04417977
0,53341;;;4,907818916
0,53391;;;-0,2804860149
0,53440;;;-5,163596538
0,53490;;;-7,299957392
0,53540;;;-6,994762984
0,53590;;;-8,825929431
0,53640;;;-14,01423436
0,53690;;;-19,5077337
0,53740;;;-21,03370574
0,53790;;;-19,81292811
0,53840;;;-17,37137285
0,53890;;;-13,70903995
0,53940;;;-8,215540615
0,53990;;;-2,416846869
0,54040;;;0,9402916159
0,54090;;;3,381846878
0,54140;;;6,128596547
0,54190;;;9,180540624
0,54240;;;11,31690148
0,54290;;;10,70651266
0,54340;;;7,959762993
0,54390;;;4,907818916
0,54440;;;4,297430101
0,54490;;;4,602624508
0,54540;;;3,687041285
0,54590;;;0,6350972082
0,54640;;;-2,111652461
0,54690;;;-3,942818907
0,54740;;;-5,773985354
0,54790;;;-8,825929431
0,54840;;;-12,79345673
0,54890;;;-14,92981758
0,54940;;;-14,62462318
0,54990;;;-13,70903995
0,55040;;;-12,18306792
0,55090;;;-9,741512654
0,55140;;;-6,079179761
0,55190;;;-2,111652461
0,55240;;;2,466263654
0,55290;;;8,570151808
0,55340;;;14,06365115
0,55390;;;17,42078963
0,55440;;;18,33637285
0,55490;;;18,94676167
0,55540;;;19,55715049
0,55590;;;19,55715049
0,55640;;;17,72598404
0,55690;;;14,36884555
0,55740;;;11,31690148
0,55790;;;9,485735032
0,55840;;;9,485735032
0,55890;;;10,09612385
0,55940;;;11,01170707
0,55990;;;11,62209589
0,56040;;;10,70651266
0,56090;;;7,349374178
0,56140;;;3,992235693
0,56190;;;4,602624508
0,56240;;;10,40131825
0,56290;;;16,81040082
0,56340;;;16,200012
0,56390;;;7,654568585
0,56440;;;-2,111652461
0,56490;;;-7,6051518
0,56540;;;-9,436318246
0,56590;;;-11,26748469
0,56640;;;-14,62462318
0,56690;;;-19,20253929
0,56740;;;-22,86487218
0,56790;;;-25,61162185
0,56840;;;-25,91681626
0,56890;;;-22,86487218
0,56940;;;-17,98176166
0,56990;;;-13,70903995
0,57040;;;-12,18306792
0,57090;;;-12,18306792
0,57140;;;-11,5726791
0,57190;;;-9,741512654
0,57240;;;-6,689568577
0,57290;;;-4,553207723
0,57340;;;-3,942818907
0,57390;;;-3,332430092
0,57440;;;-2,416846869
0,57490;;;-1,196069238
0,57540;;;-1,501263646
0,57590;;;-2,722041276
0,57640;;;-3,332430092
0,57690;;;-2,722041276
0,57740;;;-4,553207723
0,57790;;;-10,65709588
0,57840;;;-19,5077337
0,57890;;;-25,91681626
0,57940;;;-26,22201067
0,57990;;;-18,59215048
0,58040;;;-7,6051518
0,58090;;;0,9402916159
0,58140;;;4,602624508
0,58190;;;6,738985362
0,58240;;;12,84287352
0,58290;;;22,60909456
0,58340;;;29,62856594
0,58390;;;30,84934357
0,58440;;;28,71298272
0,58490;;;26,27142746
0,58540;;;23,52467779
0,58590;;;18,33637285
0,58640;;;12,84287352
0,58690;;;9,180540624
0,58740;;;6,738985362
0,58790;;;3,07665247
0,58840;;;-1,501263646
0,58890;;;-4,85840213
0,58940;;;-5,163596538
0,58990;;;-4,248013315
0,59040;;;-3,6376245
0,59089;;;-3,6376245
0,59139;;;-3,6376245
0,59189;;;-3,332430092
0,59239;;;-2,722041276
0,59289;;;-2,416846869
0,59339;;;-3,332430092
0,59389;;;-4,85840213
0,59439;;;-4,85840213
0,59489;;;-3,332430092
0,59539;;;-1,806458053
0,59589;;;-2,722041276
0,59639;;;-3,942818907
0,59689;;;-3,6376245
0,59739;;;-2,416846869
0,59789;;;-2,722041276
0,59839;;;-3,332430092
0,59889;;;-1,806458053
0,59939;;;0,6350972082
0,59989;;;0,9402916159
0,60039;;;-0,2804860149
0,60089;;;3,07665247
0,60139;;;14,36884555
0,60189;;;26,57662186
0,60239;;;29,93376035
0,60289;;;22,91428897
0,60339;;;11,62209589
0,60389;;;0,3299028005
0,60439;;;-11,5726791
0,60489;;;-25,61162185
0,60539;;;-38,12459257
0,60589;;;-45,14406395
0,60639;;;-46,67003599
0,60689;;;-45,44925835
0,60739;;;-41,78692546
0,60789;;;-33,54667645
0,60839;;;-21,64409455
0,60889;;;-9,741512654
0,60939;;;-2,111652461
0,60989;;;2,161069247
0,61039;;;6,128596547
0,61089;;;9,790929439
0,61139;;;11,01170707
0,61189;;;10,40131825
0,61239;;;10,40131825
0,61289;;;11,01170707
0,61339;;;8,264957401
0,61389;;;2,161069247
0,61439;;;-1,806458053
0,61489;;;0,02470839283
0,61539;;;5,518207731
0,61589;;;11,31690148
0,61639;;;17,72598404
0,61689;;;25,96623305
0,61739;;;32,0701212
0,61789;;;34,20648206
0,61839;;;36,34284291
0,61889;;;42,14153666
0,61939;;;45,19348073
0,61989;;;39,08959258
0,62039;;;28,71298272
0,62089;;;23,82987219
0,62139;;;23,21948338
0,62189;;;17,72598404
0,62239;;;11,01170707
0,62289;;;16,81040082
0,62339;;;39,39478699
0,62389;;;63,19995079
0,62439;;;71,44019979
0,62489;;;65,03111723
0,62539;;;52,21295211
0,62589;;;36,95323172
0,62639;;;16,200012
0,62689;;;-6,384374169
0,62739;;;-25,91681626
0,62789;;;-39,95575902
0,62839;;;-51,2479521
0,62889;;;-58,87781229
0,62939;;;-61,62456196
0,62989;;;-59,79339552
0,63039;;;-56,74145144
0,63089;;;-54,29989618
0,63139;;;-50,63756329
0,63189;;;-44,22848072
0,63239;;;-36,59862053
0,63289;;;-29,57914915
0,63339;;;-24,39084422
0,63389;;;-21,03370574
0,63439;;;-18,59215048
0,63489;;;-16,76098403
0,63539;;;-15,84540081
0,63589;;;-15,5402064
0,63639;;;-15,23501199
0,63689;;;-14,92981758
0,63739;;;-14,62462318
0,63789;;;-14,31942877
0,63839;;;-14,01423436
0,63889;;;-14,92981758
0,63939;;;-17,67656725
0,63989;;;-18,28695607
0,64039;;;-13,70903995
0,64089;;;-7,299957392
0,64139;;;-8,215540615
0,64189;;;-21,33890015
0,64239;;;-37,81939816
0,64289;;;-46,36484158
0,64339;;;-43,92328632
0,64389;;;-37,20900935
0,64439;;;-29,88434356
0,64489;;;-21,64409455
0,64539;;;-10,04670706
0,64589;;;3,687041285
0,64639;;;18,64156726
0,64688;;;33,90128765
0,64738;;;47,63503599
0,64788;;;57,40125704
0,64838;;;62,28436756
0,64888;;;63,19995079
0,64938;;;61,36878434
0,64988;;;58,01164586
0,65038;;;54,95970178
0,65088;;;52,82334093
0,65138;;;50,68698007
0,65188;;;46,10906396
0,65238;;;39,08959258
0,65288;;;32,37531561
0,65338;;;28,71298272
0,65388;;;25,96623305
0,65438;;;21,69351134
0,65488;;;14,36884555
0,65538;;;7,654568585
0,65588;;;4,297430101
0,65638;;;4,602624508
0,65688;;;4,907818916
0,65738;;;2,771458062
0,65788;;;-1,806458053
0,65838;;;-6,079179761
0,65888;;;-8,825929431
0,65938;;;-11,26748469
0,65988;;;-15,5402064
0,66038;;;-21,94928896
0,66088;;;-28,05317712
0,66138;;;-31,10512119
0,66188;;;-31,10512119
0,66238;;;-29,57914915
0,66288;;;-26,52720508
0,66338;;;-21,94928896
0,66388;;;-17,67656725
0,66438;;;-14,62462318
0,66488;;;-12,48826232
0,66538;;;-9,131123838
0,66588;;;-4,85840213
0,66638;;;-2,722041276
0,66688;;;-3,332430092
0,66738;;;-5,163596538
0,66788;;;-5,773985354
0,66838;;;-4,85840213
0,66888;;;-4,85840213
0,66938;;;-5,468790946
0,66988;;;-6,384374169
0,67038;;;-6,384374169
0,67088;;;-6,384374169
0,67138;;;-6,689568577
0,67188;;;-6,079179761
0,67238;;;-4,85840213
0,67288;;;-3,6376245
0,67338;;;-1,501263646
0,67388;;;1,855874839
0,67438;;;5,823402139
0,67488;;;6,433790955
0,67538;;;3,992235693
0,67588;;;1,550680431
0,67638;;;1,855874839
0,67688;;;3,07665247
0,67738;;;3,381846878
0,67788;;;2,771458062
0,67838;;;2,771458062
0,67888;;;3,07665247
0,67938;;;2,161069247
0,67988;;;0,02470839283
0,68038;;;-2,111652461
0,68088;;;-4,248013315
0,68138;;;-6,384374169
0,68188;;;-8,215540615
0,68238;;;-7,910346207
0,68288;;;-5,468790946
0,68338;;;-4,248013315
0,68388;;;-5,468790946
0,68438;;;-5,468790946
0,68488;;;-1,806458053
0,68538;;;2,466263654
0,68588;;;3,687041285
0,68638;;;2,161069247
0,68688;;;0,9402916159
0,68738;;;2,161069247
0,68788;;;3,07665247
0,68838;;;2,466263654
0,68888;;;1,550680431
0,68938;;;2,771458062
0,68988;;;5,213013324
0,69038;;;6,433790955
0,69088;;;6,128596547
0,69138;;;5,213013324
0,69188;;;5,213013324
0,69238;;;6,128596547
0,69288;;;7,04417977
0,69338;;;7,349374178
0,69388;;;7,04417977
0,69438;;;7,654568585
0,69488;;;10,09612385
0,69538;;;13,45326233
0,69588;;;13,75845674
0,69638;;;11,31690148
0,69688;;;8,570151808
0,69738;;;7,04417977
0,69788;;;5,518207731
0,69838;;;1,855874839
0,69888;;;-2,111652461
0,69938;;;-3,332430092
0,69988;;;-1,196069238
0,70038;;;3,687041285
0,70088;;;8,570151808
0,70138;;;8,264957401
0,70188;;;0,6350972082
0,70238;;;-9,436318246
0,70288;;;-13,09865114
0,70337;;;-8,215540615
0,70387;;;-2,416846869
0,70437;;;-2,111652461
0,70487;;;-4,85840213
0,70537;;;-5,163596538
0,70587;;;-4,248013315
0,70637;;;-9,131123838
0,70687;;;-20,42331692
0,70737;;;-32,02070442
0,70787;;;-38,12459257
0,70837;;;-39,04017579
0,70887;;;-38,12459257
0,70937;;;-36,29342612
0,70987;;;-32,32589882
0,71037;;;-27,74798271
0,71087;;;-24,69603863
0,71137;;;-21,94928896
0,71187;;;-17,37137285
0,71237;;;-10,96229028
0,71287;;;-5,468790946
0,71337;;;-2,722041276
0,71387;;;-1,501263646
0,71437;;;1,245486024
0,71487;;;5,213013324
0,71537;;;7,654568585
0,71587;;;7,349374178
0,71637;;;7,349374178
0,71687;;;12,53767911
0,71737;;;22,30390016
0,71787;;;32,98570442
0,71837;;;40,0051758
0,71887;;;42,14153666
0,71937;;;42,14153666
0,71987;;;41,53114784
0,72037;;;40,61556462
0,72087;;;38,78439817
0,72137;;;35,73245409
0,72187;;;30,23895476
0,72237;;;22,30390016
0,72287;;;14,36884555
0,72337;;;8,264957401
0,72387;;;4,907818916
0,72437;;;2,466263654
0,72487;;;-0,2804860149
0,72537;;;-3,027235684
0,72587;;;-4,553207723
0,72637;;;-4,85840213
0,72687;;;-4,85840213
0,72737;;;-5,773985354
0,72787;;;-6,994762984
0,72837;;;-7,299957392
0,72887;;;-6,079179761
0,72937;;;-4,553207723
0,72987;;;-5,468790946
0,73037;;;-8,825929431
0,73087;;;-11,87787351
0,73137;;;-12,79345673
0,73187;;;-13,09865114
0,73237;;;-15,5402064
0,73287;;;-20,11812252
0,73337;;;-22,25448337
0,73387;;;-21,03370574
0,73437;;;-18,59215048
0,73487;;;-19,20253929
0,73537;;;-20,72851133
0,73587;;;-19,5077337
0,73637;;;-16,76098403
0,73687;;;-16,45578962
0,73737;;;-19,20253929
0,73787;;;-18,89734488
0,73837;;;-11,5726791
0,73887;;;-1,806458053
0,73937;;;3,07665247
0,73987;;;3,07665247
0,74037;;;3,07665247
0,74087;;;5,213013324
0,74137;;;7,04417977
0,74187;;;5,518207731
0,74237;;;2,466263654
0,74287;;;0,6350972082
0,74337;;;-0,2804860149
0,74387;;;-1,806458053
0,74437;;;-3,332430092
0,74487;;;-3,332430092
0,74537;;;-2,416846869
0,74587;;;-1,806458053
0,74637;;;-1,806458053
0,74687;;;-0,8908748303
0,74737;;;0,3299028005
0,74787;;;0,02470839283
0,74837;;;-2,111652461
0,74887;;;-4,85840213
0,74937;;;-4,85840213
0,74987;;;-2,416846869
0,75037;;;0,6350972082
0,75087;;;3,381846878
0,75137;;;5,518207731
0,75187;;;8,570151808
0,75237;;;12,2324847
0,75287;;;15,58962319
0,75337;;;16,200012
0,75387;;;14,97923437
0,75437;;;13,45326233
0,75487;;;12,2324847
0,75537;;;11,01170707
0,75587;;;10,09612385
0,75637;;;10,09612385
0,75687;;;10,70651266
0,75737;;;9,790929439
0,75787;;;7,04417977
0,75837;;;4,297430101
0,75887;;;3,687041285
0,75936;;;3,381846878
0,75986;;;1,550680431
0,76036;;;-0,8908748303
0,76086;;;-2,111652461
0,76136;;;-2,111652461
0,76186;;;-3,027235684
0,76236;;;-4,85840213
0,76286;;;-6,079179761
0,76336;;;-6,079179761
0,76386;;;-6,689568577
0,76436;;;-8,825929431
0,76486;;;-10,35190147
0,76536;;;-9,131123838
0,76586;;;-6,994762984
0,76636;;;-6,994762984
0,76686;;;-9,436318246
0,76736;;;-10,96229028
0,76786;;;-9,436318246
0,76836;;;-6,689568577
0,76886;;;-5,773985354
0,76936;;;-6,689568577
0,76986;;;-7,299957392
0,77036;;;-6,079179761
0,77086;;;-3,6376245
0,77136;;;-0,5856804226
0,77186;;;1,550680431
0,77236;;;3,07665247
0,77286;;;3,687041285
0,77336;;;2,466263654
0,77386;;;1,550680431
0,77436;;;1,855874839
0,77486;;;3,07665247
0,77536;;;3,381846878
0,77586;;;1,550680431
0,77636;;;-0,5856804226
0,77686;;;-1,806458053
0,77736;;;-1,501263646
0,77786;;;0,3299028005
0,77836;;;2,161069247
0,77886;;;3,07665247
0,77936;;;2,771458062
0,77986;;;2,466263654
0,78036;;;2,771458062
0,78086;;;4,297430101
0,78136;;;4,907818916
0,78186;;;4,297430101
0,78236;;;3,07665247
0,78286;;;1,855874839
0,78336;;;1,550680431
0,78386;;;0,3299028005
0,78436;;;-1,806458053
0,78486;;;-6,384374169
0,78536;;;-12,18306792
0,78586;;;-17,37137285
0,78636;;;-20,42331692
0,78686;;;-20,72851133
0,78736;;;-19,20253929
0,78786;;;-15,84540081
0,78836;;;-10,35190147
0,78886;;;-4,248013315
0,78936;;;0,6350972082
0,78986;;;4,297430101
0,79036;;;7,04417977
0,79086;;;9,485735032
0,79136;;;11,62209589
0,79186;;;14,06365115
0,79236;;;16,50520641
0,79286;;;18,03117845
0,79336;;;17,42078963
0,79386;;;15,28442878
0,79436;;;12,53767911
0,79486;;;10,40131825
0,79536;;;8,264957401
0,79586;;;7,04417977
0,79636;;;7,349374178
0,79686;;;8,264957401
0,79736;;;8,875346216
0,79786;;;9,485735032
0,79836;;;12,53767911
0,79886;;;17,42078963
0,79936;;;20,77792812
0,79986;;;21,69351134
0,80036;;;21,08312252
0,80086;;;20,1675393
0,80136;;;18,33637285
0,80186;;;15,89481759
0,80236;;;13,14806792
0,80286;;;8,570151808
0,80336;;;0,3299028005
0,80386;;;-10,65709588
0,80436;;;-19,81292811
0,80486;;;-23,475261
0,80536;;;-22,55967778
0,80586;;;-21,64409455
0,80636;;;-20,72851133
0,80686;;;-17,98176166
0,80736;;;-12,79345673
0,80786;;;-6,994762984
0,80836;;;-2,111652461
0,80886;;;1,245486024
0,80936;;;4,297430101
0,80986;;;5,823402139
0,81036;;;5,823402139
0,81086;;;5,823402139
0,81136;;;7,04417977
0,81186;;;8,875346216
0,81236;;;8,875346216
0,81286;;;6,738985362
0,81336;;;3,992235693
0,81386;;;2,771458062
0,81436;;;2,771458062
0,81486;;;2,466263654
0,81536;;;0,9402916159
0,81585;;;-0,2804860149
0,81635;;;-2,111652461
0,81685;;;-6,689568577
0,81735;;;-15,5402064
0,81785;;;-24,39084422
0,81835;;;-27,74798271
0,81885;;;-25,00123304
0,81935;;;-20,72851133
0,81985;;;-17,37137285
0,82035;;;-14,01423436
0,82085;;;-8,520735023
0,82135;;;-2,416846869
0,82185;;;2,466263654
0,82235;;;5,518207731
0,82285;;;6,128596547
0,82335;;;3,992235693
0,82385;;;0,9402916159
0,82435;;;-0,2804860149
0,82485;;;0,3299028005
0,82535;;;0,9402916159
0,82585;;;-0,2804860149
0,82635;;;-1,501263646
0,82685;;;-0,8908748303
0,82735;;;0,02470839283
0,82785;;;-0,2804860149
0,82835;;;-2,111652461
0,82885;;;-3,027235684
0,82935;;;-1,806458053
0,82985;;;-0,5856804226
0,83035;;;-1,196069238
0,83085;;;-2,722041276
0,83135;;;-2,722041276
0,83185;;;-1,806458053
0,83235;;;-1,806458053
0,83285;;;-3,332430092
0,83335;;;-4,553207723
0,83385;;;-4,248013315
0,83435;;;-3,332430092
0,83485;;;-2,722041276
0,83535;;;-2,416846869
0,83585;;;-2,416846869
0,83635;;;-2,416846869
0,83685;;;-3,332430092
0,83735;;;-3,942818907
0,83785;;;-3,332430092
0,83835;;;-1,806458053
0,83885;;;-0,5856804226
0,83935;;;-0,5856804226
0,83985;;;-0,2804860149
0,84035;;;-0,2804860149
0,84085;;;-0,5856804226
0,84135;;;-1,806458053
0,84185;;;-2,111652461
0,84235;;;-0,2804860149
0,84285;;;1,245486024
0,84335;;;1,855874839
0,84385;;;2,771458062
0,84435;;;4,297430101
0,84485;;;4,602624508
0,84535;;;0,9402916159
0,84585;;;-4,85840213
0,84635;;;-9,436318246
0,84685;;;-10,35190147
0,84735;;;-9,436318246
0,84785;;;-8,215540615
0,84835;;;-7,299957392
0,84885;;;-5,163596538
0,84935;;;-2,722041276
0,84985;;;-0,2804860149
0,85035;;;2,771458062
0,85085;;;6,738985362
0,85135;;;10,40131825
0,85185;;;12,2324847
0,85235;;;12,2324847
0,85285;;;11,01170707
0,85335;;;8,875346216
0,85385;;;6,128596547
0,85435;;;2,771458062
0,85485;;;2,466263654
0,85535;;;8,875346216
0,85585;;;20,77792812
0,85635;;;29,62856594
0,85685;;;29,32337153
0,85735;;;22,91428897
0,85785;;;18,33637285
0,85835;;;17,11559522
0,85885;;;12,84287352
0,85935;;;1,855874839
0,85985;;;-9,436318246
0,86035;;;-14,01423436
0,86085;;;-13,09865114
0,86135;;;-13,40384555
0,86185;;;-16,45578962
0,86235;;;-18,59215048
0,86285;;;-17,67656725
0,86335;;;-15,5402064
0,86385;;;-13,40384555
0,86435;;;-10,96229028
0,86485;;;-8,520735023
0,86535;;;-9,436318246
0,86585;;;-15,23501199
0,86635;;;-24,08564982
0,86685;;;-32,32589882
0,86735;;;-37,81939816
0,86785;;;-37,51420375
0,86835;;;-30,49473238
0,86885;;;-18,28695607
0,86935;;;-5,468790946
0,86985;;;4,907818916
0,87035;;;14,06365115
0,87085;;;23,21948338
0,87135;;;30,84934357
0,87184;;;35,73245409
0,87234;;;38,47920376
0,87284;;;40,31037021
0,87334;;;41,22595343
0,87384;;;40,31037021
0,87434;;;36,95323172
0,87484;;;32,0701212
0,87534;;;27,49220509
0,87584;;;24,44026101
0,87634;;;22,91428897
0,87684;;;21,38831693
0,87734;;;19,25195608
0,87784;;;15,58962319
0,87834;;;10,40131825
0,87884;;;3,992235693
0,87934;;;-1,806458053
0,87984;;;-4,553207723
0,88034;;;-4,553207723
0,88084;;;-5,163596538
0,88134;;;-9,131123838
0,88184;;;-14,01423436
0,88234;;;-15,5402064
0,88284;;;-14,62462318
0,88334;;;-14,31942877
0,88384;;;-16,15059522
0,88434;;;-17,98176166
0,88484;;;-17,67656725
0,88534;;;-15,84540081
0,88584;;;-14,01423436
0,88634;;;-12,18306792
0,88684;;;-10,35190147
0,88734;;;-9,131123838
0,88784;;;-8,825929431
0,88834;;;-8,520735023
0,88884;;;-7,299957392
0,88934;;;-5,773985354
0,88984;;;-5,163596538
0,89034;;;-5,163596538
0,89084;;;-5,468790946
0,89134;;;-5,163596538
0,89184;;;-5,163596538
0,89234;;;-5,773985354
0,89284;;;-6,079179761
0,89334;;;-5,163596538
0,89384;;;-3,6376245
0,89434;;;-2,111652461
0,89484;;;-1,501263646
0,89534;;;-1,196069238
0,89584;;;-2,111652461
0,89634;;;-3,332430092
0,89684;;;-3,6376245
0,89734;;;-3,027235684
0,89784;;;-2,722041276
0,89834;;;-3,6376245
0,89884;;;-5,163596538
0,89934;;;-5,773985354
0,89984;;;-6,079179761
0,90034;;;-6,689568577
0,90084;;;-7,6051518
0,90134;;;-6,994762984
0,90184;;;-5,773985354
0,90234;;;-4,553207723
0,90284;;;-4,248013315
0,90334;;;-3,332430092
0,90384;;;-2,111652461
0,90434;;;-0,5856804226
0,90484;;;-0,2804860149
0,90534;;;-0,2804860149
0,90584;;;-0,8908748303
0,90634;;;-1,501263646
0,90684;;;-0,8908748303
0,90734;;;0,02470839283
0,90784;;;0,6350972082
0,90834;;;-0,5856804226
0,90884;;;-2,722041276
0,90934;;;-3,942818907
0,90984;;;-3,332430092
0,91034;;;-2,111652461
0,91084;;;-1,196069238
0,91134;;;-0,2804860149
0,91184;;;0,3299028005
0,91234;;;1,245486024
0,91284;;;1,550680431
0,91334;;;2,771458062
0,91384;;;3,992235693
0,91434;;;5,213013324
0,91484;;;5,823402139
0,91534;;;5,823402139
0,91584;;;4,602624508
0,91634;;;2,466263654
0,91684;;;1,245486024
0,91734;;;1,550680431
0,91784;;;2,466263654
0,91834;;;2,771458062
0,91884;;;3,381846878
0,91934;;;4,907818916
0,91984;;;5,823402139
0,92034;;;4,602624508
0,92084;;;2,466263654
0,92134;;;1,245486024
0,92184;;;1,550680431
0,92234;;;1,245486024
0,92284;;;0,02470839283
0,92334;;;-0,5856804226
0,92384;;;-1,196069238
0,92434;;;-1,806458053
0,92484;;;-2,416846869
0,92534;;;-2,111652461
0,92584;;;-0,8908748303
0,92634;;;-0,5856804226
0,92684;;;-1,806458053
0,92734;;;-3,332430092
0,92784;;;-3,027235684
0,92833;;;-0,8908748303
0,92883;;;1,245486024
0,92933;;;2,771458062
0,92983;;;3,07665247
0,93033;;;2,771458062
0,93083;;;2,161069247
0,93133;;;1,245486024
0,93183;;;0,02470839283
0,93233;;;0,02470839283
0,93283;;;1,550680431
0,93333;;;2,771458062
0,93383;;;1,855874839
0,93433;;;0,02470839283
0,93483;;;0,02470839283
0,93533;;;2,161069247
0,93583;;;3,381846878
0,93633;;;2,771458062
0,93683;;;1,550680431
0,93733;;;1,855874839
0,93783;;;1,550680431
0,93833;;;-0,2804860149
0,93883;;;-0,2804860149
0,93933;;;2,161069247
0,93983;;;4,602624508
0,94033;;;1,245486024
0,94083;;;-6,079179761
0,94133;;;-11,26748469
0,94183;;;-10,04670706
0,94233;;;-6,079179761
0,94283;;;-4,248013315
0,94333;;;-5,163596538
0,94383;;;-6,384374169
0,94433;;;-5,163596538
0,94483;;;-2,416846869
0,94533;;;0,9402916159
0,94583;;;4,297430101
0,94633;;;6,128596547
0,94683;;;6,433790955
0,94733;;;5,518207731
0,94783;;;4,297430101
0,94833;;;2,771458062
0,94883;;;1,245486024
0,94933;;;0,6350972082
0,94983;;;1,855874839
0,95033;;;3,992235693
0,95083;;;5,518207731
0,95133;;;6,128596547
0,95183;;;6,433790955
0,95233;;;7,349374178
0,95283;;;7,959762993
0,95333;;;7,04417977
0,95383;;;5,213013324
0,95433;;;3,07665247
0,95483;;;0,9402916159
0,95533;;;-2,722041276
0,95583;;;-10,04670706
0,95633;;;-18,28695607
0,95683;;;-21,64409455
0,95733;;;-19,20253929
0,95783;;;-14,01423436
0,95833;;;-10,35190147
0,95883;;;-6,689568577
0,95933;;;-1,501263646
0,95983;;;3,992235693
0,96033;;;6,738985362
0,96083;;;6,738985362
0,96133;;;6,738985362
0,96183;;;7,04417977
0,96233;;;6,433790955
0,96283;;;4,297430101
0,96333;;;2,466263654
0,96383;;;1,245486024
0,96433;;;-0,2804860149
0,96483;;;-1,806458053
0,96533;;;-1,806458053
0,96583;;;-0,2804860149
0,96633;;;0,02470839283
0,96683;;;-1,501263646
0,96733;;;-5,468790946
0,96783;;;-10,04670706
0,96833;;;-12,79345673
0,96883;;;-13,09865114
0,96933;;;-12,48826232
0,96983;;;-14,62462318
0,97033;;;-20,11812252
0,97083;;;-24,69603863
0,97133;;;-24,39084422
0,97183;;;-19,20253929
0,97233;;;-12,18306792
0,97283;;;-6,079179761
0,97333;;;-2,111652461
0,97383;;;0,02470839283
0,97433;;;2,466263654
0,97483;;;7,654568585
0,97533;;;14,67403996
0,97583;;;19,25195608
0,97633;;;20,47273371
0,97683;;;22,60909456
0,97733;;;27,79739949
0,97783;;;32,68051002
0,97833;;;32,68051002
0,97883;;;29,62856594
0,97933;;;25,05064982
0,97983;;;15,58962319
0,98033;;;-2,111652461
0,98083;;;-24,08564982
0,98133;;;-38,73498139
0,98183;;;-40,87134224
0,98233;;;-35,68303731
0,98283;;;-29,88434356
0,98333;;;-24,08564982
0,98383;;;-16,15059522
0,98432;;;-5,773985354
0,98482;;;4,907818916
0,98532;;;14,97923437
0,98582;;;22,60909456
0,98632;;;26,27142746
0,98682;;;26,57662186
0,98732;;;25,05064982
0,98782;;;23,21948338
0,98832;;;21,99870575
0,98882;;;21,38831693
0,98932;;;20,1675393
0,98982;;;17,11559522
0,99032;;;13,45326233
0,99082;;;11,62209589
0,99132;;;11,01170707
0,99182;;;9,180540624
0,99232;;;5,518207731
0,99282;;;3,07665247
0,99332;;;4,297430101
0,99382;;;6,433790955
0,99432;;;4,602624508
0,99482;;;-1,196069238
0,99532;;;-7,6051518
0,99582;;;-10,35190147
0,99632;;;-8,215540615
0,99682;;;-2,722041276
0,99732;;;0,9402916159
0,99782;;;0,3299028005
0,99832;;;-4,553207723
0,99882;;;-8,825929431
0,99932;;;-8,520735023
0,99982;;;-4,85840213
1,00032;;;-1,501263646
1,00082;;;-0,2804860149
1,00132;;;-0,2804860149
1,00182;;;-0,2804860149
1,00232;;;-0,2804860149
1,00282;;;0,3299028005
1,00332;;;0,3299028005
1,00382;;;-0,2804860149
1,00432;;;-0,8908748303
1,00482;;;-0,5856804226
1,00532;;;-0,5856804226
1,00582;;;-2,722041276
1,00632;;;-6,994762984
1,00682;;;-10,96229028
1,00732;;;-12,79345673
1,00782;;;-13,40384555
1,00832;;;-14,31942877
1,00882;;;-15,23501199
1,00932;;;-15,84540081
1,00982;;;-16,76098403
1,01032;;;-17,06617844
1,01082;;;-16,45578962
1,01132;;;-15,23501199
1,01182;;;-12,48826232
1,01232;;;-8,520735023
1,01282;;;-5,468790946
1,01332;;;-5,163596538
1,01382;;;-7,299957392
1,01432;;;-9,436318246
1,01482;;;-9,436318246
1,01532;;;-9,741512654
1,01582;;;-12,48826232
1,01632;;;-15,5402064
1,01682;;;-16,15059522
1,01732;;;-15,84540081
1,01782;;;-16,76098403
1,01832;;;-17,98176166
1,01882;;;-17,37137285
1,01932;;;-15,5402064
1,01982;;;-14,92981758
1,02032;;;-14,01423436
1,02082;;;-10,04670706
1,02132;;;-3,942818907
1,02182;;;-0,2804860149
1,02232;;;0,9402916159
1,02282;;;3,07665247
1,02332;;;7,04417977
1,02382;;;9,485735032
1,02432;;;9,180540624
1,02482;;;9,485735032
1,02532;;;11,62209589
1,02582;;;13,14806792
1,02632;;;11,62209589
1,02682;;;10,09612385
1,02732;;;10,09612385
1,02782;;;10,40131825
1,02832;;;8,570151808
1,02882;;;7,959762993
1,02932;;;9,485735032
1,02982;;;9,485735032
1,03032;;;3,07665247
1,03082;;;-6,384374169
1,03132;;;-12,79345673
1,03182;;;-13,70903995
1,03232;;;-13,09865114
1,03282;;;-13,09865114
1,03332;;;-12,18306792
1,03382;;;-8,215540615
1,03432;;;-2,416846869
1,03482;;;2,466263654
1,03532;;;6,128596547
1,03582;;;8,264957401
1,03632;;;7,654568585
1,03682;;;4,297430101
1,03732;;;0,3299028005
1,03782;;;-0,8908748303
1,03832;;;0,3299028005
1,03882;;;4,602624508
1,03932;;;9,180540624
1,03982;;;14,67403996
1,04032;;;21,08312252
1,04081;;;26,88181627
1,04131;;;30,23895476
1,04181;;;32,68051002
1,04231;;;37,56362054
1,04281;;;46,41425836
1,04331;;;54,04411856
1,04381;;;54,95970178
1,04431;;;50,07659126
1,04481;;;44,58309192
1,04531;;;39,08959258
1,04581;;;30,54414916
1,04631;;;18,94676167
1,04681;;;8,570151808
1,04731;;;0,9402916159
1,04781;;;-5,773985354
1,04831;;;-12,79345673
1,04881;;;-16,15059522
1,04931;;;-16,45578962
1,04981;;;-17,67656725
1,05031;;;-20,72851133
1,05081;;;-21,64409455
1,05131;;;-17,67656725
1,05181;;;-13,40384555
1,05231;;;-14,01423436
1,05281;;;-18,59215048
1,05331;;;-21,94928896
1,05381;;;-21,64409455
1,05431;;;-19,81292811
1,05481;;;-17,37137285
1,05531;;;-15,84540081
1,05581;;;-15,23501199
1,05631;;;-14,62462318
1,05681;;;-12,79345673
1,05731;;;-9,741512654
1,05781;;;-7,910346207
1,05831;;;-7,6051518
1,05881;;;-7,299957392
1,05931;;;-5,163596538
1,05981;;;-1,806458053
1,06031;;;0,02470839283
1,06081;;;0,6350972082
1,06131;;;0,6350972082
1,06181;;;0,6350972082
1,06231;;;0,02470839283
1,06281;;;-0,2804860149
1,06331;;;-0,8908748303
1,06381;;;-2,111652461
1,06431;;;-2,722041276
1,06481;;;-2,111652461
1,06531;;;-0,2804860149
1,06581;;;0,02470839283
1,06631;;;-0,8908748303
1,06681;;;-1,501263646
1,06731;;;-0,5856804226
1,06781;;;0,3299028005
1,06831;;;0,02470839283
1,06881;;;-0,5856804226
1,06931;;;-0,8908748303
1,06981;;;0,02470839283
1,07031;;;1,245486024
1,07081;;;2,161069247
1,07131;;;2,466263654
1,07181;;;2,466263654
1,07231;;;2,161069247
1,07281;;;3,07665247
1,07331;;;4,907818916
1,07381;;;6,128596547
1,07431;;;6,128596547
1,07481;;;5,213013324
1,07531;;;4,602624508
1,07581;;;3,992235693
1,07631;;;3,687041285
1,07681;;;2,771458062
1,07731;;;2,466263654
1,07781;;;2,771458062
1,07831;;;3,381846878
1,07881;;;4,297430101
1,07931;;;4,602624508
1,07981;;;4,297430101
1,08031;;;3,992235693
1,08081;;;3,687041285
1,08131;;;3,992235693
1,08181;;;3,992235693
1,08231;;;3,07665247
1,08281;;;1,245486024
1,08331;;;0,3299028005
1,08381;;;0,9402916159
1,08431;;;3,07665247
1,08481;;;4,297430101
1,08531;;;3,07665247
1,08581;;;0,6350972082
1,08631;;;0,02470839283
1,08681;;;0,6350972082
1,08731;;;0,9402916159
1,08781;;;1,245486024
1,08831;;;2,771458062
1,08881;;;4,907818916
1,08931;;;4,602624508
1,08981;;;1,855874839
1,09031;;;0,6350972082
1,09081;;;3,381846878
1,09131;;;7,04417977
1,09181;;;7,959762993
1,09231;;;4,907818916
1,09281;;;1,245486024
1,09331;;;-0,8908748303
1,09381;;;-3,027235684
1,09431;;;-5,468790946
1,09481;;;-7,910346207
1,09531;;;-9,741512654
1,09581;;;-11,5726791
1,09631;;;-14,62462318
1,09680;;;-18,59215048
1,09730;;;-21,33890015
1,09780;;;-21,03370574
1,09830;;;-18,28695607
1,09880;;;-14,92981758
1,09930;;;-13,70903995
1,09980;;;-14,92981758
1,10030;;;-15,5402064
1,10080;;;-13,40384555
1,10130;;;-8,520735023
1,10180;;;-4,85840213
1,10230;;;-3,6376245
1,10280;;;-2,722041276
1,10330;;;-0,2804860149
1,10380;;;3,687041285
1,10430;;;5,823402139
1,10480;;;6,433790955
1,10530;;;7,04417977
1,10580;;;8,875346216
1,10630;;;9,485735032
1,10680;;;7,959762993
1,10730;;;5,213013324
1,10780;;;4,297430101
1,10830;;;5,213013324
1,10880;;;6,433790955
1,10930;;;5,823402139
1,10980;;;3,992235693
1,11030;;;0,9402916159
1,11080;;;-0,8908748303
1,11130;;;-1,806458053
1,11180;;;-1,806458053
1,11230;;;-3,027235684
1,11280;;;-6,994762984
1,11330;;;-11,87787351
1,11380;;;-14,31942877
1,11430;;;-13,70903995
1,11480;;;-12,79345673
1,11530;;;-12,79345673
1,11580;;;-12,48826232
1,11630;;;-10,96229028
1,11680;;;-8,825929431
1,11730;;;-7,6051518
1,11780;;;-7,299957392
1,11830;;;-5,773985354
1,11880;;;-3,942818907
1,11930;;;-3,027235684
1,11980;;;-3,027235684
1,12030;;;-2,722041276
1,12080;;;-2,416846869
1,12130;;;-2,416846869
1,12180;;;-2,111652461
1,12230;;;-0,8908748303
1,12280;;;1,245486024
1,12330;;;3,687041285
1,12380;;;4,907818916
1,12430;;;4,907818916
1,12480;;;4,602624508
1,12530;;;4,907818916
1,12580;;;5,518207731
1,12630;;;4,907818916
1,12680;;;3,687041285
1,12730;;;3,992235693
1,12780;;;5,213013324
1,12830;;;5,518207731
1,12880;;;3,992235693
1,12930;;;2,771458062
1,12980;;;3,687041285
1,13030;;;4,297430101
1,13080;;;1,550680431
1,13130;;;-2,111652461
1,13180;;;-3,332430092
1,13230;;;-1,501263646
1,13280;;;-0,2804860149
1,13330;;;-0,5856804226
1,13380;;;-0,8908748303
1,13430;;;-0,2804860149
1,13480;;;0,02470839283
1,13530;;;-0,2804860149
1,13580;;;-0,2804860149
1,13630;;;0,6350972082
1,13680;;;1,245486024
1,13730;;;0,3299028005
1,13780;;;-0,2804860149
1,13830;;;-0,2804860149
1,13880;;;0,3299028005
1,13930;;;0,3299028005
1,13980;;;0,3299028005
1,14030;;;0,6350972082
1,14080;;;0,9402916159
1,14130;;;-0,2804860149
1,14180;;;-1,196069238
1,14230;;;-0,5856804226
1,14280;;;0,6350972082
1,14330;;;0,02470839283
1,14380;;;-2,416846869
1,14430;;;-3,332430092
1,14480;;;-0,8908748303
1,14530;;;1,550680431
1,14580;;;0,6350972082
1,14630;;;-2,111652461
1,14680;;;-3,027235684
1,14730;;;-1,501263646
1,14780;;;-0,5856804226
1,14830;;;-1,806458053
1,14880;;;-2,416846869
1,14930;;;-1,501263646
1,14980;;;-0,2804860149
1,15030;;;-0,5856804226
1,15080;;;-0,5856804226
1,15130;;;0,3299028005
1,15180;;;1,245486024
1,15230;;;0,02470839283
1,15280;;;-0,8908748303
1,15329;;;-0,5856804226
1,15379;;;0,3299028005
1,15429;;;0,6350972082
1,15479;;;0,3299028005
1,15529;;;0,9402916159
1,15579;;;2,161069247
1,15629;;;2,771458062
1,15679;;;2,161069247
1,15729;;;1,550680431
1,15779;;;0,9402916159
1,15829;;;0,3299028005
1,15879;;;0,3299028005
1,15929;;;1,245486024
1,15979;;;1,550680431
1,16029;;;0,3299028005
1,16079;;;-0,8908748303
1,16129;;;-0,5856804226
1,16179;;;0,3299028005
1,16229;;;0,6350972082
1,16279;;;0,02470839283
1,16329;;;0,3299028005
1,16379;;;0,9402916159
1,16429;;;1,245486024
1,16479;;;2,161069247
1,16529;;;3,381846878
1,16579;;;3,687041285
1,16629;;;1,855874839
1,16679;;;-0,8908748303
1,16729;;;-2,416846869
1,16779;;;-2,416846869
1,16829;;;-3,332430092
1,16879;;;-4,553207723
1,16929;;;-4,85840213
1,16979;;;-3,332430092
1,17029;;;-1,806458053
1,17079;;;-0,8908748303
1,17129;;;-0,5856804226
1,17179;;;-1,196069238
1,17229;;;-1,501263646
1,17279;;;-1,196069238
1,17329;;;0,02470839283
1,17379;;;1,550680431
1,17429;;;1,855874839
1,17479;;;1,855874839
1,17529;;;1,855874839
1,17579;;;1,855874839
1,17629;;;0,3299028005
1,17679;;;-1,501263646
1,17729;;;-1,501263646
1,17779;;;1,245486024
1,17829;;;3,687041285
1,17879;;;2,161069247
1,17929;;;-1,196069238
1,17979;;;-4,248013315
1,18029;;;-6,079179761
1,18079;;;-8,520735023
1,18129;;;-10,35190147
1,18179;;;-9,131123838
1,18229;;;-4,85840213
1,18279;;;-1,196069238
1,18329;;;-0,2804860149
1,18379;;;-0,8908748303
1,18429;;;0,02470839283
1,18479;;;3,07665247
1,18529;;;6,128596547
1,18579;;;6,433790955
1,18629;;;4,907818916
1,18679;;;2,771458062
1,18729;;;2,161069247
1,18779;;;3,381846878
1,18829;;;4,907818916
1,18879;;;5,823402139
1,18929;;;5,823402139
1,18979;;;5,213013324
1,19029;;;3,992235693
1,19079;;;3,07665247
1,19129;;;4,907818916
1,19179;;;10,40131825
1,19229;;;17,72598404
1,19279;;;22,91428897
1,19329;;;24,44026101
1,19379;;;23,21948338
1,19429;;;20,47273371
1,19479;;;16,50520641
1,19529;;;10,40131825
1,19579;;;4,297430101
1,19629;;;-0,2804860149
1,19679;;;-3,6376245
1,19729;;;-8,825929431
1,19779;;;-16,45578962
1,19829;;;-24,39084422
1,19879;;;-29,88434356
1,19929;;;-31,10512119
1,19979;;;-28,96876034
1,20029;;;-26,22201067
1,20079;;;-25,61162185
1,20129;;;-28,05317712
1,20179;;;-28,96876034
1,20229;;;-25,30642745
1,20279;;;-19,20253929
1,20329;;;-13,70903995
1,20379;;;-10,35190147
1,20429;;;-6,079179761
1,20479;;;-0,5856804226
1,20529;;;4,602624508
1,20579;;;8,875346216
1,20629;;;11,92729029
1,20679;;;13,75845674
1,20729;;;13,14806792
1,20779;;;11,01170707
1,20829;;;7,959762993
1,20879;;;5,518207731
1,20928;;;3,687041285
1,20978;;;2,466263654
1,21028;;;2,466263654
1,21078;;;3,07665247
1,21128;;;3,07665247
1,21178;;;2,771458062
1,21228;;;2,466263654
1,21278;;;1,245486024
1,21328;;;-3,027235684
1,21378;;;-9,436318246
1,21428;;;-14,92981758
1,21478;;;-17,06617844
1,21528;;;-16,45578962
1,21578;;;-14,31942877
1,21628;;;-10,04670706
1,21678;;;-4,553207723
1,21728;;;0,02470839283
1,21778;;;3,381846878
1,21828;;;6,738985362
1,21878;;;10,70651266
1,21928;;;12,53767911
1,21978;;;12,53767911
1,22028;;;12,53767911
1,22078;;;14,06365115
1,22128;;;14,97923437
1,22178;;;14,67403996
1,22228;;;14,06365115
1,22278;;;13,75845674
1,22328;;;12,53767911
1,22378;;;10,09612385
1,22428;;;9,180540624
1,22478;;;10,70651266
1,22528;;;11,01170707
1,22578;;;7,04417977
1,22628;;;0,9402916159
1,22678;;;-3,6376245
1,22728;;;-7,6051518
1,22778;;;-11,5726791
1,22828;;;-14,31942877
1,22878;;;-14,92981758
1,22928;;;-14,31942877
1,22978;;;-12,79345673
1,23028;;;-8,825929431
1,23078;;;-3,942818907
1,23128;;;-4,553207723
1,23178;;;-11,26748469
1,23228;;;-14,62462318
1,23278;;;-6,689568577
1,23328;;;7,959762993
1,23378;;;18,94676167
1,23428;;;22,91428897
1,23478;;;26,57662186
1,23528;;;32,98570442
1,23578;;;37,56362054
1,23628;;;37,25842613
1,23678;;;33,90128765
1,23728;;;29,62856594
1,23778;;;22,91428897
1,23828;;;15,28442878
1,23878;;;13,45326233
1,23928;;;21,38831693
1,23978;;;32,68051002
1,24028;;;36,95323172
1,24078;;;30,23895476
1,24128;;;17,42078963
1,24178;;;3,07665247
1,24228;;;-10,65709588
1,24278;;;-24,39084422
1,24328;;;-35,98823172
1,24378;;;-42,09211987
1,24428;;;-42,09211987
1,24478;;;-37,81939816
1,24528;;;-30,79992679
1,24578;;;-21,33890015
1,24628;;;-10,65709588
1,24678;;;-2,416846869
1,24728;;;-0,2804860149
1,24778;;;-3,6376245
1,24828;;;-7,910346207
1,24878;;;-10,04670706
1,24928;;;-9,436318246
1,24978;;;-6,079179761
1,25028;;;2,161069247
1,25078;;;14,36884555
1,25128;;;24,74545542
1,25178;;;28,40778831
1,25228;;;26,88181627
1,25278;;;23,21948338
1,25328;;;18,03117845
1,25378;;;10,70651266
1,25428;;;3,381846878
1,25478;;;-1,501263646
1,25528;;;-5,773985354
1,25578;;;-10,96229028
1,25628;;;-16,76098403
1,25678;;;-19,81292811
1,25728;;;-19,81292811
1,25778;;;-17,98176166
1,25828;;;-16,15059522
1,25878;;;-14,01423436
1,25928;;;-12,48826232
1,25978;;;-12,79345673
1,26028;;;-13,70903995
1,26078;;;-13,09865114
1,26128;;;-10,96229028
1,26178;;;-9,436318246
1,26228;;;-9,436318246
1,26278;;;-11,26748469
1,26328;;;-13,40384555
1,26378;;;-15,23501199
1,26428;;;-14,92981758
1,26478;;;-12,79345673
1,26528;;;-9,741512654
1,26577;;;-8,215540615
1,26627;;;-8,215540615
1,26677;;;-9,741512654
1,26727;;;-11,5726791
1,26777;;;-12,18306792
1,26827;;;-10,35190147
1,26877;;;-7,299957392
1,26927;;;-5,773985354
1,26977;;;-6,384374169
1,27027;;;-7,910346207
1,27077;;;-8,520735023
1,27127;;;-8,520735023
1,27177;;;-7,910346207
1,27227;;;-6,994762984
1,27277;;;-4,85840213
1,27327;;;-2,722041276
1,27377;;;-1,501263646
1,27427;;;-1,196069238
1,27477;;;-0,8908748303
1,27527;;;-0,2804860149
1,27577;;;0,6350972082
1,27627;;;2,161069247
1,27677;;;3,992235693
1,27727;;;4,907818916
1,27777;;;4,297430101
1,27827;;;3,687041285
1,27877;;;4,297430101
1,27927;;;5,823402139
1,27977;;;6,738985362
1,28027;;;6,433790955
1,28077;;;6,128596547
1,28127;;;7,04417977
1,28177;;;8,264957401
1,28227;;;8,570151808
1,28277;;;7,959762993
1,28327;;;6,738985362
1,28377;;;6,738985362
1,28427;;;7,349374178
1,28477;;;7,959762993
1,28527;;;8,264957401
1,28577;;;7,654568585
1,28627;;;7,04417977
1,28677;;;6,433790955
1,28727;;;5,823402139
1,28777;;;5,518207731
1,28827;;;5,213013324
1,28877;;;5,213013324
1,28927;;;4,907818916
1,28977;;;4,907818916
1,29027;;;5,213013324
1,29077;;;5,823402139
1,29127;;;5,823402139
1,29177;;;5,518207731
1,29227;;;5,213013324
1,29277;;;5,213013324
1,29327;;;5,213013324
1,29377;;;4,907818916
1,29427;;;3,992235693
1,29477;;;3,381846878
1,29527;;;3,381846878
1,29577;;;3,992235693
1,29627;;;4,297430101
1,29677;;;4,297430101
1,29727;;;3,687041285
1,29777;;;3,07665247
1,29827;;;2,466263654
1,29877;;;1,550680431
1,29927;;;0,6350972082
1,29977;;;0,02470839283
1,30027;;;-0,2804860149
1,30077;;;0,02470839283
1,30127;;;0,3299028005
1,30177;;;0,6350972082
1,30227;;;0,3299028005
1,30277;;;-0,2804860149
1,30327;;;-0,8908748303
1,30377;;;-1,196069238
1,30427;;;-0,8908748303
1,30477;;;-1,501263646
1,30527;;;-2,722041276
1,30577;;;-3,942818907
1,30627;;;-4,553207723
1,30677;;;-3,6376245
1,30727;;;-2,111652461
1,30777;;;-1,806458053
1,30827;;;-3,027235684
1,30877;;;-4,85840213
1,30927;;;-5,163596538
1,30977;;;-4,248013315
1,31027;;;-2,416846869
1,31077;;;-0,5856804226
1,31127;;;0,6350972082
1,31177;;;1,855874839
1,31227;;;2,466263654
1,31277;;;3,381846878
1,31327;;;4,297430101
1,31377;;;4,297430101
1,31427;;;2,771458062
1,31477;;;1,550680431
1,31527;;;1,855874839
1,31577;;;3,07665247
1,31627;;;2,771458062
1,31677;;;0,3299028005
1,31727;;;-1,501263646
1,31777;;;-2,416846869
1,31827;;;-3,027235684
1,31877;;;-3,6376245
1,31927;;;-4,248013315
1,31977;;;-4,248013315
1,32027;;;-4,248013315
1,32077;;;-3,332430092
1,32127;;;-2,416846869
1,32176;;;-1,806458053
1,32226;;;-3,027235684
1,32276;;;-6,384374169
1,32326;;;-12,48826232
1,32376;;;-19,5077337
1,32426;;;-24,08564982
1,32476;;;-25,00123304
1,32526;;;-24,39084422
1,32576;;;-26,83239948
1,32626;;;-32,02070442
1,32676;;;-35,3778429
1,32726;;;-34,76745409
1,32776;;;-30,79992679
1,32826;;;-24,08564982
1,32876;;;-13,09865114
1,32926;;;0,6350972082
1,32976;;;11,92729029
1,33026;;;18,64156726
1,33076;;;24,44026101
1,33126;;;33,29089883
1,33176;;;42,44673106
1,33226;;;47,02464718
1,33276;;;45,19348073
1,33326;;;39,69998139
1,33376;;;31,45973239
1,33426;;;21,69351134
1,33476;;;13,45326233
1,33526;;;7,959762993
1,33576;;;3,687041285
1,33626;;;-2,416846869
1,33676;;;-9,741512654
1,33726;;;-14,01423436
1,33776;;;-14,92981758
1,33826;;;-14,62462318
1,33876;;;-13,40384555
1,33926;;;-9,741512654
1,33976;;;-3,942818907
1,34026;;;0,02470839283
1,34076;;;1,550680431
1,34126;;;1,550680431
1,34176;;;1,245486024
1,34226;;;0,6350972082
1,34276;;;-0,2804860149
1,34326;;;-0,2804860149
1,34376;;;0,6350972082
1,34426;;;0,3299028005
1,34476;;;-1,196069238
1,34526;;;-2,111652461
1,34576;;;-0,2804860149
1,34626;;;1,855874839
1,34676;;;0,6350972082
1,34726;;;-3,942818907
1,34776;;;-7,6051518
1,34826;;;-7,299957392
1,34876;;;-2,416846869
1,34926;;;4,297430101
1,34976;;;12,53767911
1,35026;;;19,55715049
1,35076;;;22,60909456
1,35126;;;21,38831693
1,35176;;;18,94676167
1,35226;;;15,28442878
1,35276;;;7,349374178
1,35326;;;-5,163596538
1,35376;;;-18,28695607
1,35426;;;-25,30642745
1,35476;;;-25,30642745
1,35526;;;-22,86487218
1,35576;;;-20,42331692
1,35626;;;-16,45578962
1,35676;;;-10,96229028
1,35726;;;-5,773985354
1,35776;;;-2,416846869
1,35826;;;-0,2804860149
1,35876;;;1,855874839
1,35926;;;3,07665247
1,35976;;;2,161069247
1,36026;;;0,6350972082
1,36076;;;-0,2804860149
1,36126;;;-1,501263646
1,36176;;;-3,027235684
1,36226;;;-3,6376245
1,36276;;;-4,248013315
1,36326;;;-6,384374169
1,36376;;;-9,741512654
1,36426;;;-11,5726791
1,36476;;;-9,436318246
1,36526;;;-6,079179761
1,36576;;;-5,468790946
1,36626;;;-7,910346207
1,36676;;;-9,131123838
1,36726;;;-7,299957392
1,36776;;;-3,942818907
1,36826;;;-2,111652461
1,36876;;;-2,722041276
1,36926;;;-4,85840213
1,36976;;;-6,079179761
1,37026;;;-6,994762984
1,37076;;;-7,6051518
1,37126;;;-9,131123838
1,37176;;;-11,5726791
1,37226;;;-13,40384555
1,37276;;;-12,48826232
1,37326;;;-9,436318246
1,37376;;;-6,689568577
1,37426;;;-6,079179761
1,37476;;;-5,773985354
1,37526;;;-3,942818907
1,37576;;;-1,196069238
1,37626;;;0,9402916159
1,37676;;;3,07665247
1,37726;;;5,823402139
1,37776;;;7,349374178
1,37825;;;5,823402139
1,37875;;;4,602624508
1,37925;;;8,875346216
1,37975;;;19,55715049
1,38025;;;30,54414916
1,38075;;;34,51167646
1,38125;;;31,15453798
1,38175;;;24,44026101
1,38225;;;17,42078963
1,38275;;;8,875346216
1,38325;;;-1,196069238
1,38375;;;-10,35190147
1,38425;;;-16,76098403
1,38475;;;-20,42331692
1,38525;;;-23,17006659
1,38575;;;-24,69603863
1,38625;;;-23,78045541
1,38675;;;-21,03370574
1,38725;;;-17,06617844
1,38775;;;-13,09865114
1,38825;;;-9,131123838
1,38875;;;-4,85840213
1,38925;;;-1,196069238
1,38975;;;0,9402916159
1,39025;;;3,07665247
1,39075;;;5,518207731
1,39125;;;8,264957401
1,39175;;;9,790929439
1,39225;;;10,09612385
1,39275;;;10,40131825
1,39325;;;11,92729029
1,39375;;;11,92729029
1,39425;;;9,180540624
1,39475;;;3,992235693
1,39525;;;-1,196069238
1,39575;;;-4,248013315
1,39625;;;-4,553207723
1,39675;;;-3,6376245
1,39725;;;-1,501263646
1,39775;;;1,855874839
1,39825;;;6,738985362
1,39875;;;11,01170707
1,39925;;;12,84287352
1,39975;;;13,75845674
1,40025;;;16,200012
1,40075;;;19,25195608
1,40125;;;18,64156726
1,40175;;;11,92729029
1,40225;;;-0,2804860149
1,40275;;;-15,5402064
1,40325;;;-30,18953797
1,40375;;;-35,3778429
1,40425;;;-24,08564982
1,40475;;;-0,2804860149
1,40525;;;23,21948338
1,40575;;;36,95323172
1,40625;;;43,66750869
1,40675;;;50,38178566
1,40725;;;56,18047941
1,40775;;;55,26489619
1,40825;;;49,46620244
1,40875;;;44,58309192
1,40925;;;41,83634225
1,40975;;;36,34284291
1,41025;;;26,27142746
1,41075;;;15,89481759
1,41125;;;9,180540624
1,41175;;;4,297430101
1,41225;;;-0,5856804226
1,41275;;;-5,163596538
1,41325;;;-7,299957392
1,41375;;;-6,994762984
1,41425;;;-6,384374169
1,41475;;;-7,6051518
1,41525;;;-10,96229028
1,41575;;;-15,23501199
1,41625;;;-18,59215048
1,41675;;;-20,72851133
1,41725;;;-23,78045541
1,41775;;;-29,27395475
1,41825;;;-35,07264849
1,41875;;;-37,51420375
1,41925;;;-36,29342612
1,41975;;;-34,46225968
1,42025;;;-34,15706527
1,42075;;;-33,54667645
1,42125;;;-31,10512119
1,42175;;;-28,05317712
1,42225;;;-26,22201067
1,42275;;;-25,00123304
1,42325;;;-23,475261
1,42375;;;-21,64409455
1,42425;;;-20,11812252
1,42475;;;-18,89734488
1,42525;;;-16,15059522
1,42575;;;-11,87787351
1,42625;;;-7,299957392
1,42675;;;-4,248013315
1,42725;;;-2,416846869
1,42775;;;-0,2804860149
1,42825;;;1,245486024
1,42875;;;2,161069247
1,42925;;;3,687041285
1,42975;;;6,128596547
1,43025;;;5,823402139
1,43075;;;-1,806458053
1,43125;;;-16,15059522
1,43175;;;-29,88434356
1,43225;;;-35,68303731
1,43275;;;-35,3778429
1,43325;;;-32,32589882
1,43375;;;-27,74798271
1,43424;;;-20,11812252
1,43474;;;-10,35190147
1,43524;;;-0,5856804226
1,43574;;;8,570151808
1,43624;;;17,42078963
1,43674;;;25,35584423
1,43724;;;32,98570442
1,43774;;;43,05711988
1,43824;;;53,12853533
1,43874;;;56,79086823
1,43924;;;51,29736889
1,43974;;;41,22595343
1,44024;;;34,20648206
1,44074;;;32,0701212
1,44124;;;30,23895476
1,44174;;;26,27142746
1,44224;;;23,52467779
1,44274;;;23,82987219
1,44324;;;26,27142746
1,44374;;;29,32337153
1,44424;;;32,98570442
1,44474;;;38,17400936
1,44524;;;45,49867514
1,44574;;;52,21295211
1,44624;;;54,34931296
1,44674;;;50,38178566
1,44724;;;42,44673106
1,44774;;;35,12206528
1,44824;;;27,49220509
1,44874;;;15,28442878
1,44924;;;-0,2804860149
1,44974;;;-13,09865114
1,45024;;;-18,28695607
1,45074;;;-19,20253929
1,45124;;;-20,11812252
1,45174;;;-20,72851133
1,45224;;;-20,11812252
1,45274;;;-21,03370574
1,45324;;;-26,52720508
1,45374;;;-31,71551001
1,45424;;;-29,88434356
1,45474;;;-23,17006659
1,45524;;;-19,81292811
1,45574;;;-21,94928896
1,45624;;;-24,39084422
1,45674;;;-23,475261
1,45724;;;-23,17006659
1,45774;;;-27,13759389
1,45824;;;-33,54667645
1,45874;;;-37,20900935
1,45924;;;-36,59862053
1,45974;;;-35,3778429
1,46024;;;-35,3778429
1,46074;;;-36,59862053
1,46124;;;-36,90381494
1,46174;;;-34,46225968
1,46224;;;-29,27395475
1,46274;;;-24,39084422
1,46324;;;-21,64409455
1,46374;;;-20,11812252
1,46424;;;-16,45578962
1,46474;;;-9,741512654
1,46524;;;-3,6376245
1,46574;;;-0,2804860149
1,46624;;;2,466263654
1,46674;;;7,654568585
1,46724;;;12,84287352
1,46774;;;12,53767911
1,46824;;;6,128596547
1,46874;;;-2,722041276
1,46924;;;-10,35190147
1,46974;;;-18,28695607
1,47024;;;-27,13759389
1,47074;;;-33,54667645
1,47124;;;-32,93628764
1,47174;;;-26,22201067
1,47224;;;-20,11812252
1,47274;;;-17,37137285
1,47324;;;-15,23501199
1,47374;;;-10,96229028
1,47424;;;-5,773985354
1,47474;;;-2,722041276
1,47524;;;-1,806458053
1,47574;;;-0,2804860149
1,47624;;;3,992235693
1,47674;;;11,01170707
1,47724;;;18,33637285
1,47774;;;25,35584423
1,47824;;;31,15453798
1,47874;;;36,34284291
1,47924;;;41,22595343
1,47974;;;46,10906396
1,48024;;;48,24542481
1,48074;;;46,41425836
1,48124;;;41,83634225
1,48174;;;36,95323172
1,48224;;;31,76492679
1,48274;;;25,96623305
1,48324;;;19,86234489
1,48374;;;16,200012
1,48424;;;15,89481759
1,48474;;;15,89481759
1,48524;;;14,36884555
1,48574;;;11,01170707
1,48624;;;7,654568585
1,48674;;;6,128596547
1,48724;;;5,518207731
1,48774;;;3,992235693
1,48824;;;2,161069247
1,48874;;;1,245486024
1,48924;;;1,245486024
1,48974;;;0,6350972082
1,49024;;;-1,501263646
1,49073;;;-3,942818907
1,49123;;;-3,942818907
1,49173;;;-3,027235684
1,49223;;;-3,942818907
1,49273;;;-7,6051518
1,49323;;;-12,18306792
1,49373;;;-14,01423436
1,49423;;;-12,79345673
1,49473;;;-10,35190147
1,49523;;;-9,436318246
1,49573;;;-10,35190147
1,49623;;;-10,96229028
1,49673;;;-10,04670706
1,49723;;;-8,520735023
1,49773;;;-8,520735023
1,49823;;;-9,741512654
1,49873;;;-10,35190147
1,49923;;;-10,04670706
1,49973;;;-9,741512654
1,50023;;;-10,04670706
1,50073;;;-9,741512654
1,50123;;;-8,825929431
1,50173;;;-7,910346207
1,50223;;;-6,384374169
1,50273;;;-3,942818907
1,50323;;;-3,027235684
1,50373;;;-6,689568577
1,50423;;;-14,92981758
1,50473;;;-22,86487218
1,50523;;;-27,13759389
1,50573;;;-30,79992679
1,50623;;;-35,07264849
1,50673;;;-34,76745409
1,50723;;;-22,25448337
1,50773;;;0,9402916159
1,50823;;;25,66103864
1,50873;;;42,44673106
1,50923;;;49,46620244
1,50973;;;48,85581363
1,51023;;;43,05711988
1,51073;;;34,81687087
1,51123;;;27,79739949
1,51173;;;22,30390016
1,51223;;;14,97923437
1,51273;;;6,128596547
1,51323;;;-1,501263646
1,51373;;;-5,468790946
1,51423;;;-8,520735023
1,51473;;;-13,40384555
1,51523;;;-17,67656725
1,51573;;;-17,67656725
1,51623;;;-13,70903995
1,51673;;;-9,741512654
1,51723;;;-7,910346207
1,51773;;;-6,079179761
1,51823;;;-2,722041276
1,51873;;;0,6350972082
1,51923;;;2,771458062
1,51973;;;6,128596547
1,52023;;;11,62209589
1,52073;;;16,200012
1,52123;;;16,81040082
1,52173;;;14,06365115
1,52223;;;11,62209589
1,52273;;;8,875346216
1,52323;;;0,02470839283
1,52373;;;-17,06617844
1,52423;;;-34,76745409
1,52473;;;-42,39731428
1,52523;;;-38,12459257
1,52573;;;-29,57914915
1,52623;;;-24,69603863
1,52673;;;-21,64409455
1,52723;;;-14,92981758
1,52773;;;-3,332430092
1,52823;;;7,959762993
1,52873;;;17,11559522
1,52923;;;24,44026101
1,52973;;;30,23895476
1,53023;;;31,76492679
1,53073;;;30,84934357
1,53123;;;34,20648206
1,53173;;;45,49867514
1,53223;;;57,09606263
1,53273;;;57,09606263
1,53323;;;44,27789751
1,53373;;;27,49220509
1,53423;;;15,89481759
1,53473;;;9,180540624
1,53523;;;5,213013324
1,53573;;;3,381846878
1,53623;;;2,771458062
1,53673;;;-0,2804860149
1,53723;;;-8,520735023
1,53773;;;-18,28695607
1,53823;;;-19,81292811
1,53873;;;-10,96229028
1,53923;;;3,381846878
1,53973;;;15,58962319
1,54023;;;21,38831693
1,54073;;;21,08312252
1,54123;;;17,11559522
1,54173;;;11,62209589
1,54223;;;5,213013324
1,54273;;;-3,332430092
1,54323;;;-14,92981758
1,54373;;;-27,74798271
1,54423;;;-39,04017579
1,54473;;;-47,2804248
1,54523;;;-50,63756329
1,54573;;;-50,33236888
1,54623;;;-51,2479521
1,54672;;;-60,09858992
1,54722;;;-75,96869912
1,54772;;;-89,70244747
1,54822;;;-91,53361392
1,54872;;;-81,15700406
1,54922;;;-65,28689486
1,54972;;;-49,11159125
1,55022;;;-34,46225968
1,55072;;;-19,81292811
1,55122;;;-5,163596538
1,55172;;;9,485735032
1,55222;;;22,30390016
1,55272;;;31,45973239
1,55322;;;36,0376485
1,55372;;;38,17400936
1,55422;;;40,31037021
1,55472;;;40,92075902
1,55522;;;38,78439817
1,55572;;;35,73245409
1,55622;;;33,29089883
1,55672;;;30,84934357
1,55722;;;27,79739949
1,55772;;;25,05064982
1,55822;;;22,91428897
1,55872;;;19,25195608
1,55922;;;14,06365115
1,55972;;;10,09612385
1,56022;;;8,264957401
1,56072;;;7,04417977
1,56122;;;3,687041285
1,56172;;;0,9402916159
1,56222;;;0,9402916159
1,56272;;;1,550680431
1,56322;;;-0,8908748303
1,56372;;;-5,773985354
1,56422;;;-8,520735023
1,56472;;;-7,910346207
1,56522;;;-7,910346207
1,56572;;;-9,436318246
1,56622;;;-11,5726791
1,56672;;;-11,5726791
1,56722;;;-10,65709588
1,56772;;;-9,436318246
1,56822;;;-8,520735023
1,56872;;;-7,299957392
1,56922;;;-5,468790946
1,56972;;;-2,722041276
1,57022;;;0,6350972082
1,57072;;;3,687041285
1,57122;;;5,213013324
1,57172;;;6,128596547
1,57222;;;6,128596547
1,57272;;;4,907818916
1,57322;;;3,07665247
1,57372;;;2,466263654
1,57422;;;3,992235693
1,57472;;;4,297430101
1,57522;;;0,02470839283
1,57572;;;-6,079179761
1,57622;;;-9,741512654
1,57672;;;-8,215540615
1,57722;;;-3,027235684
1,57772;;;3,381846878
1,57822;;;9,485735032
1,57872;;;12,2324847
1,57922;;;12,2324847
1,57972;;;12,53767911
1,58022;;;16,200012
1,58072;;;21,08312252
1,58122;;;22,91428897
1,58172;;;21,08312252
1,58222;;;18,03117845
1,58272;;;15,28442878
1,58322;;;12,2324847
1,58372;;;7,654568585
1,58422;;;3,381846878
1,58472;;;-0,2804860149
1,58522;;;-3,942818907
1,58572;;;-7,6051518
1,58622;;;-10,04670706
1,58672;;;-10,65709588
1,58722;;;-11,26748469
1,58772;;;-13,40384555
1,58822;;;-18,89734488
1,58872;;;-25,61162185
1,58922;;;-29,88434356
1,58972;;;-29,88434356
1,59022;;;-26,22201067
1,59072;;;-21,33890015
1,59122;;;-15,5402064
1,59172;;;-7,6051518
1,59222;;;1,550680431
1,59272;;;10,40131825
1,59322;;;16,50520641
1,59372;;;19,86234489
1,59422;;;18,94676167
1,59472;;;12,53767911
1,59522;;;2,466263654
1,59572;;;-6,994762984
1,59622;;;-12,79345673
1,59672;;;-13,70903995
1,59722;;;-11,5726791
1,59772;;;-6,384374169
1,59822;;;-0,2804860149
1,59872;;;4,297430101
1,59922;;;7,349374178
1,59972;;;11,01170707
1,60022;;;15,58962319
1,60072;;;17,72598404
1,60122;;;15,58962319
1,60172;;;11,92729029
1,60222;;;9,790929439
1,60272;;;8,875346216
1,60321;;;6,738985362
1,60371;;;4,907818916
1,60421;;;5,213013324
1,60471;;;7,04417977
1,60521;;;7,654568585
1,60571;;;6,128596547
1,60621;;;3,992235693
1,60671;;;0,3299028005
1,60721;;;-6,079179761
1,60771;;;-13,40384555
1,60821;;;-17,37137285
1,60871;;;-17,98176166
1,60921;;;-17,37137285
1,60971;;;-16,15059522
1,61021;;;-12,79345673
1,61071;;;-8,215540615
1,61121;;;-5,468790946
1,61171;;;-5,163596538
1,61221;;;-4,248013315
1,61271;;;-1,196069238
1,61321;;;1,550680431
1,61371;;;2,161069247
1,61421;;;0,3299028005
1,61471;;;-2,416846869
1,61521;;;-6,384374169
1,61571;;;-10,96229028
1,61621;;;-13,70903995
1,61671;;;-13,40384555
1,61721;;;-10,65709588
1,61771;;;-7,6051518
1,61821;;;-5,468790946
1,61871;;;-3,332430092
1,61921;;;-1,501263646
1,61971;;;-1,501263646
1,62021;;;-3,6376245
1,62071;;;-7,6051518
1,62121;;;-10,04670706
1,62171;;;-8,520735023
1,62221;;;-3,332430092
1,62271;;;2,771458062
1,62321;;;7,654568585
1,62371;;;10,09612385
1,62421;;;11,31690148
1,62471;;;12,2324847
1,62521;;;13,75845674
1,62571;;;16,200012
1,62621;;;18,03117845
1,62671;;;18,03117845
1,62721;;;16,50520641
1,62771;;;14,97923437
1,62821;;;14,36884555
1,62871;;;13,75845674
1,62921;;;11,01170707
1,62971;;;7,04417977
1,63021;;;5,823402139
1,63071;;;7,04417977
1,63121;;;8,570151808
1,63171;;;8,570151808
1,63221;;;8,875346216
1,63271;;;10,70651266
1,63321;;;11,31690148
1,63371;;;8,570151808
1,63421;;;4,907818916
1,63471;;;7,349374178
1,63521;;;18,33637285
1,63571;;;30,54414916
1,63621;;;36,34284291
1,63671;;;33,29089883
1,63721;;;25,35584423
1,63771;;;15,89481759
1,63821;;;7,04417977
1,63871;;;-1,196069238
1,63921;;;-8,520735023
1,63971;;;-14,31942877
1,64021;;;-19,5077337
1,64071;;;-24,39084422
1,64121;;;-28,96876034
1,64171;;;-32,32589882
1,64221;;;-34,15706527
1,64271;;;-33,24148205
1,64321;;;-30,18953797
1,64371;;;-26,52720508
1,64421;;;-23,17006659
1,64471;;;-20,11812252
1,64521;;;-16,45578962
1,64571;;;-13,70903995
1,64621;;;-11,5726791
1,64671;;;-9,741512654
1,64721;;;-6,689568577
1,64771;;;-4,248013315
1,64821;;;-2,722041276
1,64871;;;-1,806458053
1,64921;;;-0,2804860149
1,64971;;;0,6350972082
1,65021;;;-0,8908748303
1,65071;;;-3,942818907
1,65121;;;-4,553207723
1,65171;;;-1,501263646
1,65221;;;1,550680431
1,65271;;;3,07665247
1,65321;;;4,602624508
1,65371;;;6,738985362
1,65421;;;8,570151808
1,65471;;;8,570151808
1,65521;;;9,790929439
1,65571;;;13,45326233
1,65621;;;14,06365115
1,65671;;;6,738985362
1,65721;;;-6,079179761
1,65771;;;-14,31942877
1,65821;;;-11,87787351
1,65871;;;-3,027235684
1,65920;;;3,381846878
1,65970;;;5,518207731
1,66020;;;4,907818916
1,66070;;;5,518207731
1,66120;;;9,790929439
1,66170;;;16,81040082
1,66220;;;23,52467779
1,66270;;;26,27142746
1,66320;;;24,74545542
1,66370;;;21,99870575
1,66420;;;18,94676167
1,66470;;;15,58962319
1,66520;;;11,62209589
1,66570;;;8,570151808
1,66620;;;5,213013324
1,66670;;;0,9402916159
1,66720;;;-3,027235684
1,66770;;;-5,468790946
1,66820;;;-6,079179761
1,66870;;;-6,689568577
1,66920;;;-7,299957392
1,66970;;;-6,994762984
1,67020;;;-6,689568577
1,67070;;;-9,131123838
1,67120;;;-10,65709588
1,67170;;;-3,942818907
1,67220;;;11,01170707
1,67270;;;26,57662186
1,67320;;;32,98570442
1,67370;;;30,84934357
1,67420;;;26,27142746
1,67470;;;20,77792812
1,67520;;;11,92729029
1,67570;;;-0,2804860149
1,67620;;;-12,79345673
1,67670;;;-23,17006659
1,67720;;;-31,4103156
1,67770;;;-38,12459257
1,67820;;;-42,70250869
1,67870;;;-44,53367513
1,67920;;;-44,83886954
1,67970;;;-43,92328632
1,68020;;;-41,48173105
1,68070;;;-37,81939816
1,68120;;;-33,85187086
1,68170;;;-29,88434356
1,68220;;;-25,91681626
1,68270;;;-22,25448337
1,68320;;;-18,89734488
1,68370;;;-15,5402064
1,68420;;;-11,87787351
1,68470;;;-8,825929431
1,68520;;;-6,079179761
1,68570;;;-3,332430092
1,68620;;;-0,2804860149
1,68670;;;2,466263654
1,68720;;;3,381846878
1,68770;;;3,07665247
1,68820;;;3,07665247
1,68870;;;4,297430101
1,68920;;;5,213013324
1,68970;;;5,518207731
1,69020;;;4,602624508
1,69070;;;3,687041285
1,69120;;;3,381846878
1,69170;;;4,602624508
1,69220;;;6,738985362
1,69270;;;8,570151808
1,69320;;;8,875346216
1,69370;;;8,264957401
1,69420;;;7,959762993
1,69470;;;7,654568585
1,69520;;;5,823402139
1,69570;;;1,245486024
1,69620;;;-3,942818907
1,69670;;;-6,384374169
1,69720;;;-5,163596538
1,69770;;;-2,722041276
1,69820;;;-2,111652461
1,69870;;;-2,416846869
1,69920;;;-1,501263646
1,69970;;;0,02470839283
1,70020;;;1,550680431
1,70070;;;0,9402916159
1,70120;;;-0,2804860149
1,70170;;;0,3299028005
1,70220;;;1,550680431
1,70270;;;1,245486024
1,70320;;;-0,8908748303
1,70370;;;-3,332430092
1,70420;;;-2,111652461
1,70470;;;2,466263654
1,70520;;;8,875346216
1,70570;;;14,67403996
1,70620;;;19,25195608
1,70670;;;25,05064982
1,70720;;;33,90128765
1,70770;;;45,19348073
1,70820;;;54,65450737
1,70870;;;56,79086823
1,70920;;;49,16100803
1,70970;;;36,64803732
1,71020;;;26,57662186
1,71070;;;20,1675393
1,71120;;;14,36884555
1,71170;;;7,04417977
1,71220;;;-0,2804860149
1,71270;;;-5,163596538
1,71320;;;-10,04670706
1,71370;;;-15,84540081
1,71420;;;-21,64409455
1,71470;;;-23,17006659
1,71520;;;-20,72851133
1,71569;;;-17,67656725
1,71619;;;-14,62462318
1,71669;;;-9,131123838
1,71719;;;-0,2804860149
1,71769;;;6,738985362
1,71819;;;7,654568585
1,71869;;;2,466263654
1,71919;;;-3,6376245
1,71969;;;-8,215540615
1,72019;;;-10,04670706
1,72069;;;-9,741512654
1,72119;;;-6,689568577
1,72169;;;-2,416846869
1,72219;;;-0,5856804226
1,72269;;;-0,8908748303
1,72319;;;-0,5856804226
1,72369;;;1,550680431
1,72419;;;3,07665247
1,72469;;;0,6350972082
1,72519;;;-5,468790946
1,72569;;;-11,5726791
1,72619;;;-14,31942877
1,72669;;;-13,09865114
1,72719;;;-8,825929431
1,72769;;;-3,942818907
1,72819;;;-0,8908748303
1,72869;;;-0,2804860149
1,72919;;;0,6350972082
1,72969;;;2,161069247
1,73019;;;2,161069247
1,73069;;;-0,2804860149
1,73119;;;-3,6376245
1,73169;;;-5,468790946
1,73219;;;-5,468790946
1,73269;;;-5,773985354
1,73319;;;-6,689568577
1,73369;;;-6,079179761
1,73419;;;-4,85840213
1,73469;;;-4,85840213
1,73519;;;-5,468790946
1,73569;;;-5,773985354
1,73619;;;-5,163596538
1,73669;;;-5,163596538
1,73719;;;-5,773985354
1,73769;;;-6,384374169
1,73819;;;-6,994762984
1,73869;;;-7,910346207
1,73919;;;-7,299957392
1,73969;;;-4,85840213
1,74019;;;-3,6376245
1,74069;;;-5,773985354
1,74119;;;-8,520735023
1,74169;;;-6,994762984
1,74219;;;-3,6376245
1,74269;;;-3,6376245
1,74319;;;-6,079179761
1,74369;;;-6,689568577
1,74419;;;-3,942818907
1,74469;;;-1,806458053
1,74519;;;-1,806458053
1,74569;;;-1,806458053
1,74619;;;-0,5856804226
1,74669;;;-2,111652461
1,74719;;;-6,994762984
1,74769;;;-11,5726791
1,74819;;;-14,31942877
1,74869;;;-17,06617844
1,74919;;;-21,03370574
1,74969;;;-23,17006659
1,75019;;;-22,55967778
1,75069;;;-21,64409455
1,75119;;;-19,20253929
1,75169;;;-9,436318246
1,75219;;;8,875346216
1,75269;;;29,62856594
1,75319;;;43,9727031
1,75369;;;51,29736889
1,75419;;;54,95970178
1,75469;;;55,875285
1,75519;;;52,82334093
1,75569;;;47,02464718
1,75619;;;41,22595343
1,75669;;;35,12206528
1,75719;;;28,40778831
1,75769;;;22,60909456
1,75819;;;19,55715049
1,75869;;;16,81040082
1,75919;;;11,31690148
1,75969;;;5,213013324
1,76019;;;2,466263654
1,76069;;;2,771458062
1,76119;;;3,07665247
1,76169;;;1,855874839
1,76219;;;1,245486024
1,76269;;;2,466263654
1,76319;;;3,07665247
1,76369;;;1,245486024
1,76419;;;-0,8908748303
1,76469;;;-2,416846869
1,76519;;;-2,722041276
1,76569;;;-4,248013315
1,76619;;;-7,910346207
1,76669;;;-13,09865114
1,76719;;;-17,37137285
1,76769;;;-19,20253929
1,76819;;;-19,81292811
1,76869;;;-20,42331692
1,76919;;;-20,72851133
1,76969;;;-19,20253929
1,77019;;;-16,45578962
1,77069;;;-14,62462318
1,77119;;;-14,62462318
1,77168;;;-14,92981758
1,77218;;;-13,70903995
1,77268;;;-12,18306792
1,77318;;;-12,48826232
1,77368;;;-13,40384555
1,77418;;;-12,79345673
1,77468;;;-10,65709588
1,77518;;;-9,741512654
1,77568;;;-12,48826232
1,77618;;;-17,98176166
1,77668;;;-23,475261
1,77718;;;-25,91681626
1,77768;;;-24,69603863
1,77818;;;-20,11812252
1,77868;;;-14,31942877
1,77918;;;-8,520735023
1,77968;;;-2,416846869
1,78018;;;3,992235693
1,78068;;;10,40131825
1,78118;;;14,06365115
1,78168;;;14,67403996
1,78218;;;13,75845674
1,78268;;;13,45326233
1,78318;;;13,14806792
1,78368;;;12,53767911
1,78418;;;11,62209589
1,78468;;;11,31690148
1,78518;;;10,09612385
1,78568;;;6,738985362
1,78618;;;3,07665247
1,78668;;;0,6350972082
1,78718;;;0,3299028005
1,78768;;;0,02470839283
1,78818;;;-0,2804860149
1,78868;;;-0,8908748303
1,78918;;;-1,501263646
1,78968;;;-2,416846869
1,79018;;;-3,332430092
1,79068;;;-3,332430092
1,79118;;;-3,027235684
1,79168;;;-3,942818907
1,79218;;;-6,689568577
1,79268;;;-8,825929431
1,79318;;;-9,131123838
1,79368;;;-7,299957392
1,79418;;;-4,553207723
1,79468;;;-3,332430092
1,79518;;;-2,416846869
1,79568;;;-0,2804860149
1,79618;;;2,771458062
1,79668;;;5,213013324
1,79718;;;3,992235693
1,79768;;;0,02470839283
1,79818;;;-3,027235684
1,79868;;;-4,248013315
1,79918;;;-4,248013315
1,79968;;;-4,248013315
1,80018;;;-2,722041276
1,80068;;;-0,5856804226
1,80118;;;0,6350972082
1,80168;;;0,9402916159
1,80218;;;1,855874839
1,80268;;;3,07665247
1,80318;;;3,992235693
1,80368;;;3,687041285
1,80418;;;5,213013324
1,80468;;;8,570151808
1,80518;;;10,09612385
1,80568;;;7,04417977
1,80618;;;2,161069247
1,80668;;;-0,5856804226
1,80718;;;-0,5856804226
1,80768;;;0,9402916159
1,80818;;;3,381846878
1,80868;;;5,823402139
1,80918;;;7,959762993
1,80968;;;10,40131825
1,81018;;;14,97923437
1,81068;;;20,47273371
1,81118;;;22,60909456
1,81168;;;18,33637285
1,81218;;;9,180540624
1,81268;;;-0,2804860149
1,81318;;;-6,079179761
1,81368;;;-7,910346207
1,81418;;;-6,384374169
1,81468;;;-3,332430092
1,81518;;;-0,2804860149
1,81568;;;3,07665247
1,81618;;;7,654568585
1,81668;;;11,31690148
1,81718;;;12,53767911
1,81768;;;11,01170707
1,81818;;;8,264957401
1,81868;;;4,297430101
1,81918;;;0,9402916159
1,81968;;;-0,2804860149
1,82018;;;-0,2804860149
1,82068;;;-0,8908748303
1,82118;;;-1,501263646
1,82168;;;0,6350972082
1,82218;;;5,823402139
1,82268;;;8,264957401
1,82318;;;6,433790955
1,82368;;;8,875346216
1,82418;;;23,21948338
1,82468;;;42,75192547
1,82518;;;52,82334093
1,82568;;;47,9402304
1,82618;;;36,64803732
1,82668;;;25,96623305
1,82718;;;14,67403996
1,82768;;;-0,2804860149
1,82817;;;-17,06617844
1,82867;;;-30,18953797
1,82917;;;-39,95575902
1,82967;;;-47,89081362
1,83017;;;-53,38431295
1,83067;;;-54,60509059
1,83117;;;-53,38431295
1,83167;;;-50,63756329
1,83217;;;-46,05964717
1,83267;;;-40,56614783
1,83317;;;-35,98823172
1,83367;;;-33,54667645
1,83417;;;-30,79992679
1,83467;;;-26,22201067
1,83517;;;-20,72851133
1,83567;;;-16,76098403
1,83617;;;-17,37137285
1,83667;;;-23,475261
1,83717;;;-33,85187086
1,83767;;;-43,3128975
1,83817;;;-45,14406395
1,83867;;;-37,81939816
1,83917;;;-27,13759389
1,83967;;;-18,89734488
1,84017;;;-12,79345673
1,84067;;;-4,248013315
1,84117;;;6,128596547
1,84167;;;13,75845674
1,84217;;;15,28442878
1,84267;;;13,75845674
1,84317;;;13,45326233
1,84367;;;14,67403996
1,84417;;;16,200012
1,84467;;;17,11559522
1,84517;;;18,33637285
1,84567;;;18,94676167
1,84617;;;18,64156726
1,84667;;;17,72598404
1,84717;;;17,42078963
1,84767;;;18,94676167
1,84817;;;20,77792812
1,84867;;;21,08312252
1,84917;;;20,47273371
1,84967;;;19,86234489
1,85017;;;20,47273371
1,85067;;;21,69351134
1,85117;;;22,60909456
1,85167;;;23,21948338
1,85217;;;23,21948338
1,85267;;;22,30390016
1,85317;;;19,55715049
1,85367;;;15,89481759
1,85417;;;12,53767911
1,85467;;;9,790929439
1,85517;;;5,823402139
1,85567;;;0,9402916159
1,85617;;;-2,416846869
1,85667;;;-4,248013315
1,85717;;;-4,85840213
1,85767;;;-5,468790946
1,85817;;;-5,468790946
1,85867;;;-4,248013315
1,85917;;;-3,6376245
1,85967;;;-4,553207723
1,86017;;;-5,773985354
1,86067;;;-5,163596538
1,86117;;;-3,332430092
1,86167;;;-3,332430092
1,86217;;;-4,553207723
1,86267;;;-4,248013315
1,86317;;;-2,416846869
1,86367;;;-1,501263646
1,86417;;;-2,416846869
1,86467;;;-3,027235684
1,86517;;;-2,416846869
1,86567;;;-1,196069238
1,86617;;;-0,2804860149
1,86667;;;-0,5856804226
1,86717;;;-0,5856804226
1,86767;;;-0,2804860149
1,86817;;;0,02470839283
1,86867;;;0,9402916159
1,86917;;;1,855874839
1,86967;;;2,161069247
1,87017;;;2,466263654
1,87067;;;2,771458062
1,87117;;;3,07665247
1,87167;;;3,992235693
1,87217;;;4,907818916
1,87267;;;4,602624508
1,87317;;;2,161069247
1,87367;;;-0,8908748303
1,87417;;;-2,722041276
1,87467;;;-2,416846869
1,87517;;;-1,806458053
1,87567;;;-1,501263646
1,87617;;;-0,5856804226
1,87667;;;0,9402916159
1,87717;;;2,161069247
1,87767;;;1,855874839
1,87817;;;1,550680431
1,87867;;;2,466263654
1,87917;;;2,466263654
1,87967;;;1,245486024
1,88017;;;0,6350972082
1,88067;;;1,855874839
1,88117;;;3,381846878
1,88167;;;2,161069247
1,88217;;;0,02470839283
1,88267;;;-0,5856804226
1,88317;;;-0,2804860149
1,88367;;;0,3299028005
1,88416;;;0,9402916159
1,88466;;;3,07665247
1,88516;;;6,433790955
1,88566;;;7,959762993
1,88616;;;6,433790955
1,88666;;;3,381846878
1,88716;;;0,3299028005
1,88766;;;-0,5856804226
1,88816;;;-0,2804860149
1,88866;;;0,3299028005
1,88916;;;0,9402916159
1,88966;;;-0,2804860149
1,89016;;;-1,501263646
1,89066;;;-2,722041276
1,89116;;;-4,85840213
1,89166;;;-8,825929431
1,89216;;;-13,09865114
1,89266;;;-14,31942877
1,89316;;;-11,87787351
1,89366;;;-8,825929431
1,89416;;;-6,689568577
1,89466;;;-4,85840213
1,89516;;;-1,806458053
1,89566;;;1,855874839
1,89616;;;4,602624508
1,89666;;;6,433790955
1,89716;;;8,264957401
1,89766;;;10,70651266
1,89816;;;14,36884555
1,89866;;;18,33637285
1,89916;;;20,47273371
1,89966;;;18,94676167
1,90016;;;14,97923437
1,90066;;;13,45326233
1,90116;;;15,58962319
1,90166;;;19,55715049
1,90216;;;21,38831693
1,90266;;;20,47273371
1,90316;;;18,03117845
1,90366;;;14,67403996
1,90416;;;11,62209589
1,90466;;;8,875346216
1,90516;;;7,04417977
1,90566;;;5,823402139
1,90616;;;4,297430101
1,90666;;;3,07665247
1,90716;;;2,161069247
1,90766;;;-0,2804860149
1,90816;;;-5,163596538
1,90866;;;-9,436318246
1,90916;;;-11,26748469
1,90966;;;-12,18306792
1,91016;;;-17,67656725
1,91066;;;-27,4427883
1,91116;;;-35,98823172
1,91166;;;-37,81939816
1,91216;;;-34,46225968
1,91266;;;-27,74798271
1,91316;;;-17,98176166
1,91366;;;-4,553207723
1,91416;;;10,09612385
1,91466;;;21,99870575
1,91516;;;28,40778831
1,91566;;;29,32337153
1,91616;;;25,66103864
1,91666;;;18,03117845
1,91716;;;8,570151808
1,91766;;;0,9402916159
1,91816;;;-2,111652461
1,91866;;;-2,722041276
1,91916;;;-3,027235684
1,91966;;;-3,942818907
1,92016;;;-5,163596538
1,92066;;;-6,079179761
1,92116;;;-7,299957392
1,92166;;;-10,65709588
1,92216;;;-15,23501199
1,92266;;;-18,89734488
1,92316;;;-20,42331692
1,92366;;;-21,94928896
1,92416;;;-23,78045541
1,92466;;;-24,69603863
1,92516;;;-22,25448337
1,92566;;;-19,5077337
1,92616;;;-19,81292811
1,92666;;;-22,86487218
1,92716;;;-25,61162185
1,92766;;;-26,52720508
1,92816;;;-26,83239948
1,92866;;;-28,05317712
1,92916;;;-29,27395475
1,92966;;;-29,57914915
1,93016;;;-28,66356593
1,93066;;;-25,91681626
1,93116;;;-22,25448337
1,93166;;;-18,28695607
1,93216;;;-15,5402064
1,93266;;;-14,01423436
1,93316;;;-12,79345673
1,93366;;;-11,26748469
1,93416;;;-9,741512654
1,93466;;;-7,910346207
1,93516;;;-6,384374169
1,93566;;;-5,773985354
1,93616;;;-6,689568577
1,93666;;;-6,384374169
1,93716;;;-3,6376245
1,93766;;;-0,2804860149
1,93816;;;0,3299028005
1,93866;;;-0,5856804226
1,93916;;;-0,2804860149
1,93966;;;2,161069247
1,94016;;;4,907818916
1,94065;;;6,738985362
1,94115;;;9,790929439
1,94165;;;13,14806792
1,94215;;;13,14806792
1,94265;;;7,959762993
1,94315;;;2,161069247
1,94365;;;-0,2804860149
1,94415;;;0,02470839283
1,94465;;;0,3299028005
1,94515;;;-0,5856804226
1,94565;;;-1,806458053
1,94615;;;-0,5856804226
1,94665;;;2,161069247
1,94715;;;6,433790955
1,94765;;;10,70651266
1,94815;;;14,36884555
1,94865;;;17,42078963
1,94915;;;20,1675393
1,94965;;;22,30390016
1,95015;;;23,52467779
1,95065;;;23,52467779
1,95115;;;23,52467779
1,95165;;;24,1350666
1,95215;;;23,21948338
1,95265;;;20,77792812
1,95315;;;18,33637285
1,95365;;;19,25195608
1,95415;;;22,30390016
1,95465;;;25,05064982
1,95515;;;25,66103864
1,95565;;;24,44026101
1,95615;;;24,1350666
1,95665;;;25,05064982
1,95715;;;26,57662186
1,95765;;;26,57662186
1,95815;;;24,74545542
1,95865;;;22,30390016
1,95915;;;20,1675393
1,95965;;;17,42078963
1,96015;;;13,45326233
1,96065;;;8,875346216
1,96115;;;5,518207731
1,96165;;;3,992235693
1,96215;;;2,466263654
1,96265;;;0,6350972082
1,96315;;;-0,5856804226
1,96365;;;-1,806458053
1,96415;;;-3,027235684
1,96465;;;-4,248013315
1,96515;;;-4,553207723
1,96565;;;-4,553207723
1,96615;;;-4,85840213
1,96665;;;-6,384374169
1,96715;;;-7,299957392
1,96765;;;-7,299957392
1,96815;;;-6,079179761
1,96865;;;-5,163596538
1,96915;;;-4,553207723
1,96965;;;-4,248013315
1,97015;;;-3,942818907
1,97065;;;-3,332430092
1,97115;;;-3,332430092
1,97165;;;-6,079179761
1,97215;;;-12,48826232
1,97265;;;-20,42331692
1,97315;;;-24,39084422
1,97365;;;-21,33890015
1,97415;;;-14,31942877
1,97465;;;-7,910346207
1,97515;;;-3,332430092
1,97565;;;1,245486024
1,97615;;;6,433790955
1,97665;;;12,53767911
1,97715;;;20,77792812
1,97765;;;32,37531561
1,97815;;;43,05711988
1,97865;;;46,10906396
1,97915;;;41,22595343
1,97965;;;32,37531561
1,98015;;;24,44026101
1,98065;;;15,28442878
1,98115;;;4,907818916
1,98165;;;-3,6376245
1,98215;;;-9,131123838
1,98265;;;-15,5402064
1,98315;;;-26,52720508
1,98365;;;-38,42978698
1,98415;;;-43,92328632
1,98465;;;-41,48173105
1,98515;;;-37,51420375
1,98565;;;-35,3778429
1,98615;;;-32,63109323
1,98665;;;-26,83239948
1,98715;;;-20,42331692
1,98765;;;-16,15059522
1,98815;;;-12,79345673
1,98865;;;-7,910346207
1,98915;;;-2,722041276
1,98965;;;0,6350972082
1,99015;;;1,550680431
1,99065;;;0,3299028005
1,99115;;;-0,8908748303
1,99165;;;-1,806458053
1,99215;;;-1,501263646
1,99265;;;-1,501263646
1,99315;;;-2,111652461
1,99365;;;-2,722041276
1,99415;;;-0,5856804226
1,99465;;;3,381846878
1,99515;;;7,04417977
1,99565;;;7,959762993
1,99615;;;7,654568585
1,99664;;;8,264957401
1,99714;;;8,264957401
1,99764;;;7,04417977
1,99814;;;5,518207731
1,99864;;;4,907818916
1,99914;;;3,381846878
1,99964;;;0,02470839283
2,00014;;;-3,332430092
2,00064;;;-5,468790946
2,00114;;;-5,773985354
2,00164;;;-6,994762984
2,00214;;;-10,04670706
2,00264;;;-13,40384555
2,00314;;;-15,84540081
2,00364;;;-17,37137285
2,00414;;;-16,45578962
2,00464;;;-13,70903995
2,00514;;;-10,65709588
2,00564;;;-8,825929431
2,00614;;;-8,215540615
2,00664;;;-6,384374169
2,00714;;;-4,553207723
2,00764;;;-3,942818907
2,00814;;;-4,248013315
2,00864;;;-3,942818907
2,00914;;;-3,332430092
2,00964;;;-3,027235684
2,01014;;;-1,806458053
2,01064;;;0,02470839283
2,01114;;;1,245486024
2,01164;;;0,02470839283
2,01214;;;0,02470839283
2,01264;;;6,433790955
2,01314;;;16,50520641
2,01364;;;21,69351134
2,01414;;;17,11559522
2,01464;;;7,654568585
2,01514;;;-0,5856804226
2,01564;;;-7,299957392
2,01614;;;-13,70903995
2,01664;;;-17,67656725
2,01714;;;-16,76098403
2,01764;;;-15,23501199
2,01814;;;-21,33890015
2,01864;;;-36,29342612
2,01914;;;-52,16353532
2,01964;;;-59,48820111
2,02014;;;-55,2154794
2,02064;;;-43,61809191
2,02114;;;-29,27395475
2,02164;;;-14,92981758
2,02214;;;-0,2804860149
2,02264;;;14,36884555
2,02314;;;28,71298272
2,02364;;;39,69998139
2,02414;;;47,02464718
2,02464;;;51,29736889
2,02514;;;51,60256329
2,02564;;;47,9402304
2,02614;;;42,14153666
2,02664;;;37,86881495
2,02714;;;36,0376485
2,02764;;;34,81687087
2,02814;;;32,68051002
2,02864;;;30,54414916
2,02914;;;28,71298272
2,02964;;;26,27142746
2,03014;;;21,99870575
2,03064;;;16,81040082
2,03114;;;11,31690148
2,03164;;;6,433790955
2,03214;;;3,687041285
2,03264;;;3,07665247
2,03314;;;1,855874839
2,03364;;;-0,5856804226
2,03414;;;1,245486024
2,03464;;;15,58962319
2,03514;;;37,25842613
2,03564;;;52,21295211
2,03614;;;50,99217448
2,03664;;;37,86881495
2,03714;;;23,82987219
2,03764;;;13,14806792
2,03814;;;2,466263654
2,03864;;;-10,96229028
2,03914;;;-25,30642745
2,03964;;;-35,07264849
2,04014;;;-38,42978698
2,04064;;;-40,56614783
2,04114;;;-44,83886954
2,04164;;;-50,33236888
2,04214;;;-52,77392414
2,04264;;;-50,94275769
2,04314;;;-46,97523039
2,04364;;;-42,70250869
2,04414;;;-35,07264849
2,04464;;;-24,69603863
2,04514;;;-15,84540081
2,04564;;;-10,35190147
2,04614;;;-5,773985354
2,04664;;;0,3299028005
2,04714;;;6,738985362
2,04764;;;10,09612385
2,04814;;;11,92729029
2,04864;;;14,67403996
2,04914;;;17,42078963
2,04964;;;17,42078963
2,05014;;;15,58962319
2,05064;;;13,45326233
2,05114;;;9,180540624
2,05164;;;0,6350972082
2,05214;;;-7,6051518
2,05264;;;-11,26748469
2,05313;;;-9,131123838
2,05363;;;-6,384374169
2,05413;;;-6,079179761
2,05463;;;-6,384374169
2,05513;;;-5,163596538
2,05563;;;-3,027235684
2,05613;;;-0,8908748303
2,05663;;;0,3299028005
2,05713;;;0,3299028005
2,05763;;;-0,8908748303
2,05813;;;-2,111652461
2,05863;;;-1,196069238
2,05913;;;0,6350972082
2,05963;;;0,6350972082
2,06013;;;-1,806458053
2,06063;;;-4,553207723
2,06113;;;-6,079179761
2,06163;;;-7,910346207
2,06213;;;-9,741512654
2,06263;;;-10,35190147
2,06313;;;-8,825929431
2,06363;;;-6,384374169
2,06413;;;-4,248013315
2,06463;;;-2,111652461
2,06513;;;-0,8908748303
2,06563;;;-1,196069238
2,06613;;;-3,027235684
2,06663;;;-3,6376245
2,06713;;;-1,806458053
2,06763;;;0,3299028005
2,06813;;;0,3299028005
2,06863;;;-1,501263646
2,06913;;;-3,027235684
2,06963;;;-2,416846869
2,07013;;;-0,8908748303
2,07063;;;-0,5856804226
2,07113;;;-1,501263646
2,07163;;;-2,416846869
2,07213;;;-3,332430092
2,07263;;;-4,553207723
2,07313;;;-5,163596538
2,07363;;;-4,85840213
2,07413;;;-3,6376245
2,07463;;;-3,027235684
2,07513;;;-3,942818907
2,07563;;;-7,6051518
2,07613;;;-11,5726791
2,07663;;;-14,01423436
2,07713;;;-12,18306792
2,07763;;;-6,689568577
2,07813;;;0,02470839283
2,07863;;;6,128596547
2,07913;;;11,31690148
2,07963;;;14,67403996
2,08013;;;16,81040082
2,08063;;;17,72598404
2,08113;;;17,72598404
2,08163;;;17,72598404
2,08213;;;16,50520641
2,08263;;;13,45326233
2,08313;;;9,485735032
2,08363;;;7,349374178
2,08413;;;6,433790955
2,08463;;;4,907818916
2,08513;;;3,381846878
2,08563;;;5,823402139
2,08613;;;12,84287352
2,08663;;;20,47273371
2,08713;;;23,21948338
2,08763;;;20,77792812
2,08813;;;17,11559522
2,08863;;;13,75845674
2,08913;;;8,875346216
2,08963;;;1,550680431
2,09013;;;-3,6376245
2,09063;;;-3,6376245
2,09113;;;0,6350972082
2,09163;;;4,907818916
2,09213;;;5,823402139
2,09263;;;4,297430101
2,09313;;;2,161069247
2,09363;;;-0,2804860149
2,09413;;;-4,248013315
2,09463;;;-9,131123838
2,09513;;;-11,87787351
2,09563;;;-9,436318246
2,09613;;;-3,942818907
2,09663;;;-0,2804860149
2,09713;;;-0,8908748303
2,09763;;;-3,942818907
2,09813;;;-5,468790946
2,09863;;;-5,468790946
2,09913;;;-6,689568577
2,09963;;;-10,35190147
2,10013;;;-14,31942877
2,10063;;;-15,84540081
2,10113;;;-16,76098403
2,10163;;;-19,20253929
2,10213;;;-21,33890015
2,10263;;;-20,11812252
2,10313;;;-16,15059522
2,10363;;;-12,79345673
2,10413;;;-11,5726791
2,10463;;;-10,35190147
2,10513;;;-7,910346207
2,10563;;;-6,079179761
2,10613;;;-6,079179761
2,10663;;;-6,079179761
2,10713;;;-3,332430092
2,10763;;;-0,2804860149
2,10813;;;0,3299028005
2,10863;;;-1,196069238
2,10912;;;-3,027235684
2,10962;;;-3,6376245
2,11012;;;-3,6376245
2,11062;;;-3,942818907
2,11112;;;-3,942818907
2,11162;;;-4,248013315
2,11212;;;-5,773985354
2,11262;;;-4,553207723
2,11312;;;3,07665247
2,11362;;;15,58962319
2,11412;;;24,74545542
2,11462;;;25,96623305
2,11512;;;21,69351134
2,11562;;;16,50520641
2,11612;;;12,2324847
2,11662;;;6,433790955
2,11712;;;-0,2804860149
2,11762;;;-5,773985354
2,11812;;;-9,436318246
2,11862;;;-11,26748469
2,11912;;;-10,96229028
2,11962;;;-9,436318246
2,12012;;;-8,520735023
2,12062;;;-7,6051518
2,12112;;;-3,027235684
2,12162;;;4,602624508
2,12212;;;9,790929439
2,12262;;;7,349374178
2,12312;;;-1,196069238
2,12362;;;-10,65709588
2,12412;;;-17,98176166
2,12462;;;-24,39084422
2,12512;;;-28,05317712
2,12562;;;-25,61162185
2,12612;;;-17,06617844
2,12662;;;-6,384374169
2,12712;;;3,07665247
2,12762;;;13,45326233
2,12812;;;25,35584423
2,12862;;;35,73245409
2,12912;;;40,61556462
2,12962;;;40,92075902
2,13012;;;38,78439817
2,13062;;;36,64803732
2,13112;;;34,20648206
2,13162;;;31,76492679
2,13212;;;30,54414916
2,13262;;;30,54414916
2,13312;;;29,93376035
2,13362;;;26,57662186
2,13412;;;20,77792812
2,13462;;;14,36884555
2,13512;;;9,790929439
2,13562;;;6,738985362
2,13612;;;3,992235693
2,13662;;;1,855874839
2,13712;;;1,245486024
2,13762;;;1,550680431
2,13812;;;1,550680431
2,13862;;;1,245486024
2,13912;;;1,550680431
2,13962;;;1,855874839
2,14012;;;0,02470839283
2,14062;;;-2,416846869
2,14112;;;-4,553207723
2,14162;;;-7,299957392
2,14212;;;-13,09865114
2,14262;;;-20,72851133
2,14312;;;-25,91681626
2,14362;;;-27,4427883
2,14412;;;-26,83239948
2,14462;;;-23,475261
2,14512;;;-17,37137285
2,14562;;;-12,48826232
2,14612;;;-15,84540081
2,14662;;;-27,4427883
2,14712;;;-38,12459257
2,14762;;;-40,26095342
2,14812;;;-35,98823172
2,14862;;;-31,71551001
2,14912;;;-27,74798271
2,14962;;;-22,55967778
2,15012;;;-16,45578962
2,15062;;;-11,87787351
2,15112;;;-7,299957392
2,15162;;;-0,8908748303
2,15212;;;6,738985362
2,15262;;;12,2324847
2,15312;;;14,67403996
2,15362;;;15,28442878
2,15412;;;16,81040082
2,15462;;;18,33637285
2,15512;;;19,55715049
2,15562;;;18,94676167
2,15612;;;16,200012
2,15662;;;11,62209589
2,15712;;;7,654568585
2,15762;;;6,738985362
2,15812;;;8,875346216
2,15862;;;12,2324847
2,15912;;;17,11559522
2,15962;;;23,21948338
2,16012;;;29,93376035
2,16062;;;33,59609324
2,16112;;;31,15453798
2,16162;;;24,1350666
2,16212;;;15,89481759
2,16262;;;10,09612385
2,16312;;;7,04417977
2,16362;;;4,297430101
2,16412;;;0,6350972082
2,16462;;;-2,416846869
2,16512;;;-3,6376245
2,16561;;;-3,942818907
2,16611;;;-6,384374169
2,16661;;;-10,35190147
2,16711;;;-13,09865114
2,16761;;;-14,31942877
2,16811;;;-17,67656725
2,16861;;;-25,61162185
2,16911;;;-34,15706527
2,16961;;;-37,81939816
2,17011;;;-36,59862053
2,17061;;;-32,32589882
2,17111;;;-26,83239948
2,17161;;;-20,42331692
2,17211;;;-14,92981758
2,17261;;;-11,26748469
2,17311;;;-7,910346207
2,17361;;;-3,027235684
2,17411;;;0,6350972082
2,17461;;;1,245486024
2,17511;;;-0,5856804226
2,17561;;;-1,806458053
2,17611;;;-2,111652461
2,17661;;;-3,942818907
2,17711;;;-6,689568577
2,17761;;;-5,773985354
2,17811;;;-2,416846869
2,17861;;;-2,416846869
2,17911;;;-6,689568577
2,17961;;;-6,079179761
2,18011;;;6,433790955
2,18061;;;24,74545542
2,18111;;;34,51167646
2,18161;;;31,45973239
2,18211;;;21,99870575
2,18261;;;13,75845674
2,18311;;;5,823402139
2,18361;;;-3,027235684
2,18411;;;-12,48826232
2,18461;;;-20,72851133
2,18511;;;-28,66356593
2,18561;;;-35,07264849
2,18611;;;-34,76745409
2,18661;;;-25,30642745
2,18711;;;-10,65709588
2,18761;;;1,855874839
2,18811;;;11,62209589
2,18861;;;19,55715049
2,18911;;;23,82987219
2,18961;;;21,99870575
2,19011;;;14,06365115
2,19061;;;4,602624508
2,19111;;;-3,332430092
2,19161;;;-10,65709588
2,19211;;;-18,28695607
2,19261;;;-25,91681626
2,19311;;;-31,71551001
2,19361;;;-35,68303731
2,19411;;;-36,29342612
2,19461;;;-33,85187086
2,19511;;;-29,27395475
2,19561;;;-24,39084422
2,19611;;;-19,20253929
2,19661;;;-13,09865114
2,19711;;;-6,994762984
2,19761;;;-3,027235684
2,19811;;;-3,027235684
2,19861;;;-5,773985354
2,19911;;;-7,299957392
2,19961;;;-6,079179761
2,20011;;;-3,332430092
2,20061;;;-1,806458053
2,20111;;;-2,111652461
2,20161;;;-2,111652461
2,20211;;;-0,5856804226
2,20261;;;2,466263654
2,20311;;;6,128596547
2,20361;;;10,40131825
2,20411;;;15,58962319
2,20461;;;21,08312252
2,20511;;;25,35584423
2,20561;;;27,79739949
2,20611;;;30,23895476
2,20661;;;34,51167646
2,20711;;;40,61556462
2,20761;;;46,10906396
2,20811;;;49,77139685
2,20861;;;50,68698007
2,20911;;;49,16100803
2,20961;;;44,58309192
2,21011;;;37,86881495
2,21061;;;29,62856594
2,21111;;;21,38831693
2,21161;;;13,45326233
2,21211;;;5,518207731
2,21261;;;-1,196069238
2,21311;;;-6,994762984
2,21361;;;-10,65709588
2,21411;;;-12,18306792
2,21461;;;-10,96229028
2,21511;;;-8,825929431
2,21561;;;-7,299957392
2,21611;;;-7,6051518
2,21661;;;-7,910346207
2,21711;;;-6,994762984
2,21761;;;-5,163596538
2,21811;;;-3,027235684
2,21861;;;-1,196069238
2,21911;;;0,6350972082
2,21961;;;0,6350972082
2,22011;;;-3,6376245
2,22061;;;-11,26748469
2,22111;;;-16,45578962
2,22160;;;-16,15059522
2,22210;;;-12,79345673
2,22260;;;-10,35190147
2,22310;;;-9,436318246
2,22360;;;-7,299957392
2,22410;;;-2,722041276
2,22460;;;3,381846878
2,22510;;;8,875346216
2,22560;;;12,84287352
2,22610;;;14,06365115
2,22660;;;13,75845674
2,22710;;;12,53767911
2,22760;;;11,62209589
2,22810;;;11,62209589
2,22860;;;11,31690148
2,22910;;;10,09612385
2,22960;;;8,264957401
2,23010;;;7,04417977
2,23060;;;6,738985362
2,23110;;;6,433790955
2,23160;;;4,297430101
2,23210;;;0,9402916159
2,23260;;;-1,501263646
2,23310;;;-2,111652461
2,23360;;;-1,806458053
2,23410;;;-2,722041276
2,23460;;;-4,248013315
2,23510;;;-3,027235684
2,23560;;;0,02470839283
2,23610;;;0,3299028005
2,23660;;;-6,079179761
2,23710;;;-16,45578962
2,23760;;;-23,17006659
2,23810;;;-23,475261
2,23860;;;-19,5077337
2,23910;;;-14,92981758
2,23960;;;-10,04670706
2,24010;;;-3,6376245
2,24060;;;2,771458062
2,24110;;;6,128596547
2,24160;;;4,297430101
2,24210;;;0,02470839283
2,24260;;;-2,722041276
2,24310;;;-1,501263646
2,24360;;;3,381846878
2,24410;;;10,40131825
2,24460;;;17,11559522
2,24510;;;21,99870575
2,24560;;;25,35584423
2,24610;;;28,1025939
2,24660;;;31,15453798
2,24710;;;32,68051002
2,24760;;;31,15453798
2,24810;;;26,57662186
2,24860;;;21,69351134
2,24910;;;17,11559522
2,24960;;;12,84287352
2,25010;;;7,654568585
2,25060;;;1,855874839
2,25110;;;-2,416846869
2,25160;;;-5,163596538
2,25210;;;-6,994762984
2,25260;;;-9,131123838
2,25310;;;-12,48826232
2,25360;;;-16,15059522
2,25410;;;-18,59215048
2,25460;;;-19,20253929
2,25510;;;-19,5077337
2,25560;;;-20,42331692
2,25610;;;-22,86487218
2,25660;;;-25,00123304
2,25710;;;-26,22201067
2,25760;;;-25,91681626
2,25810;;;-25,00123304
2,25860;;;-24,08564982
2,25910;;;-23,78045541
2,25960;;;-24,08564982
2,26010;;;-23,475261
2,26060;;;-21,03370574
2,26110;;;-19,20253929
2,26160;;;-18,89734488
2,26210;;;-17,98176166
2,26260;;;-15,23501199
2,26310;;;-11,87787351
2,26360;;;-10,35190147
2,26410;;;-10,04670706
2,26460;;;-8,215540615
2,26510;;;-4,85840213
2,26560;;;-3,942818907
2,26610;;;-5,163596538
2,26660;;;-5,773985354
2,26710;;;-4,553207723
2,26760;;;-4,248013315
2,26810;;;-6,384374169
2,26860;;;-7,910346207
2,26910;;;-6,384374169
2,26960;;;-3,6376245
2,27010;;;-2,416846869
2,27060;;;-3,027235684
2,27110;;;-3,332430092
2,27160;;;-2,416846869
2,27210;;;-1,806458053
2,27260;;;-1,501263646
2,27310;;;-0,5856804226
2,27360;;;0,6350972082
2,27410;;;0,9402916159
2,27460;;;0,9402916159
2,27510;;;3,07665247
2,27560;;;6,128596547
2,27610;;;3,992235693
2,27660;;;-7,910346207
2,27710;;;-25,61162185
2,27760;;;-38,73498139
2,27809;;;-40,87134224
2,27859;;;-34,76745409
2,27909;;;-26,22201067
2,27959;;;-17,37137285
2,28009;;;-6,079179761
2,28059;;;7,349374178
2,28109;;;20,77792812
2,28159;;;32,37531561
2,28209;;;41,83634225
2,28259;;;48,85581363
2,28309;;;50,99217448
2,28359;;;49,16100803
2,28409;;;45,49867514
2,28459;;;42,14153666
2,28509;;;38,17400936
2,28559;;;32,68051002
2,28609;;;27,49220509
2,28659;;;23,21948338
2,28709;;;19,86234489
2,28759;;;16,200012
2,28809;;;11,31690148
2,28859;;;5,823402139
2,28909;;;0,9402916159
2,28959;;;-1,501263646
2,29009;;;-2,111652461
2,29059;;;-3,332430092
2,29109;;;-7,299957392
2,29159;;;-14,31942877
2,29209;;;-21,64409455
2,29259;;;-27,13759389
2,29309;;;-29,57914915
2,29359;;;-25,61162185
2,29409;;;-14,31942877
2,29459;;;-0,2804860149
2,29509;;;8,570151808
2,29559;;;7,654568585
2,29609;;;1,855874839
2,29659;;;-2,111652461
2,29709;;;-2,416846869
2,29759;;;-3,942818907
2,29809;;;-9,741512654
2,29859;;;-15,5402064
2,29909;;;-13,70903995
2,29959;;;-3,332430092
2,30009;;;7,959762993
2,30059;;;13,14806792
2,30109;;;11,31690148
2,30159;;;6,433790955
2,30209;;;0,6350972082
2,30259;;;-5,773985354
2,30309;;;-12,79345673
2,30359;;;-18,28695607
2,30409;;;-20,42331692
2,30459;;;-21,03370574
2,30509;;;-21,33890015
2,30559;;;-21,94928896
2,30609;;;-23,78045541
2,30659;;;-25,61162185
2,30709;;;-25,61162185
2,30759;;;-21,33890015
2,30809;;;-12,79345673
2,30859;;;-4,553207723
2,30909;;;0,9402916159
2,30959;;;5,213013324
2,31009;;;8,570151808
2,31059;;;10,40131825
2,31109;;;9,485735032
2,31159;;;7,349374178
2,31209;;;6,738985362
2,31259;;;7,04417977
2,31309;;;7,04417977
2,31359;;;5,823402139
2,31409;;;3,992235693
2,31459;;;2,161069247
2,31509;;;0,6350972082
2,31559;;;0,3299028005
2,31609;;;1,550680431
2,31659;;;1,855874839
2,31709;;;1,245486024
2,31759;;;0,3299028005
2,31809;;;0,9402916159
2,31859;;;2,466263654
2,31909;;;2,161069247
2,31959;;;0,3299028005
2,32009;;;-0,2804860149
2,32059;;;0,02470839283
2,32109;;;1,855874839
2,32159;;;3,687041285
2,32209;;;5,823402139
2,32259;;;7,349374178
2,32309;;;8,570151808
2,32359;;;9,485735032
2,32409;;;10,09612385
2,32459;;;10,40131825
2,32509;;;10,40131825
2,32559;;;12,2324847
2,32609;;;17,11559522
2,32659;;;22,30390016
2,32709;;;23,52467779
2,32759;;;20,1675393
2,32809;;;15,58962319
2,32859;;;11,92729029
2,32909;;;7,654568585
2,32959;;;1,550680431
2,33009;;;-4,248013315
2,33059;;;-7,910346207
2,33109;;;-8,825929431
2,33159;;;-9,436318246
2,33209;;;-10,65709588
2,33259;;;-10,96229028
2,33309;;;-9,741512654
2,33359;;;-8,520735023
2,33408;;;-8,215540615
2,33458;;;-6,994762984
2,33508;;;-3,027235684
2,33558;;;3,381846878
2,33608;;;11,31690148
2,33658;;;16,50520641
2,33708;;;18,03117845
2,33758;;;17,42078963
2,33808;;;15,28442878
2,33858;;;12,84287352
2,33908;;;10,40131825
2,33958;;;8,875346216
2,34008;;;5,213013324
2,34058;;;-2,722041276
2,34108;;;-14,92981758
2,34158;;;-25,91681626
2,34208;;;-29,57914915
2,34258;;;-27,4427883
2,34308;;;-23,475261
2,34358;;;-18,59215048
2,34408;;;-11,5726791
2,34458;;;-2,111652461
2,34508;;;5,518207731
2,34558;;;10,09612385
2,34608;;;12,53767911
2,34658;;;12,53767911
2,34708;;;9,180540624
2,34758;;;3,381846878
2,34808;;;-1,196069238
2,34858;;;-2,722041276
2,34908;;;-2,416846869
2,34958;;;-1,806458053
2,35008;;;0,3299028005
2,35058;;;3,992235693
2,35108;;;6,128596547
2,35158;;;4,602624508
2,35208;;;2,161069247
2,35258;;;3,07665247
2,35308;;;7,04417977
2,35358;;;9,790929439
2,35408;;;10,40131825
2,35458;;;11,31690148
2,35508;;;14,06365115
2,35558;;;16,200012
2,35608;;;16,50520641
2,35658;;;17,42078963
2,35708;;;19,55715049
2,35758;;;21,38831693
2,35808;;;19,86234489
2,35858;;;15,89481759
2,35908;;;11,92729029
2,35958;;;8,570151808
2,36008;;;4,602624508
2,36058;;;0,02470839283
2,36108;;;-3,332430092
2,36158;;;-5,468790946
2,36208;;;-5,468790946
2,36258;;;-4,553207723
2,36308;;;-3,942818907
2,36358;;;-4,85840213
2,36408;;;-6,384374169
2,36458;;;-7,299957392
2,36508;;;-6,994762984
2,36558;;;-6,994762984
2,36608;;;-8,215540615
2,36658;;;-9,741512654
2,36708;;;-10,96229028
2,36758;;;-11,26748469
2,36808;;;-12,18306792
2,36858;;;-13,40384555
2,36908;;;-13,70903995
2,36958;;;-12,79345673
2,37008;;;-12,79345673
2,37058;;;-14,01423436
2,37108;;;-15,84540081
2,37158;;;-17,06617844
2,37208;;;-17,37137285
2,37258;;;-17,06617844
2,37308;;;-16,76098403
2,37358;;;-16,15059522
2,37408;;;-14,92981758
2,37458;;;-13,09865114
2,37508;;;-10,65709588
2,37558;;;-9,436318246
2,37608;;;-9,131123838
2,37658;;;-8,520735023
2,37708;;;-7,299957392
2,37758;;;-6,079179761
2,37808;;;-6,079179761
2,37858;;;-6,689568577
2,37908;;;-6,689568577
2,37958;;;-6,079179761
2,38008;;;-5,773985354
2,38058;;;-4,85840213
2,38108;;;-3,332430092
2,38158;;;-1,501263646
2,38208;;;-0,8908748303
2,38258;;;-1,501263646
2,38308;;;-3,332430092
2,38358;;;-7,299957392
2,38408;;;-10,65709588
2,38458;;;-10,65709588
2,38508;;;-8,520735023
2,38558;;;-10,65709588
2,38608;;;-21,03370574
2,38658;;;-33,24148205
2,38708;;;-36,90381494
2,38758;;;-30,18953797
2,38808;;;-20,72851133
2,38858;;;-12,48826232
2,38908;;;-2,416846869
2,38958;;;9,485735032
2,39008;;;18,64156726
2,39057;;;22,60909456
2,39107;;;26,88181627
2,39157;;;32,68051002
2,39207;;;33,90128765
2,39257;;;30,23895476
2,39307;;;34,51167646
2,39357;;;56,48567382
2,39407;;;84,25836492
2,39457;;;96,16094682
2,39507;;;84,56355933
2,39557;;;61,97917316
2,39607;;;39,69998139
2,39657;;;17,42078963
2,39707;;;-6,384374169
2,39757;;;-27,4427883
2,39807;;;-40,26095342
2,39857;;;-46,36484158
2,39907;;;-50,02717447
2,39957;;;-51,85834092
2,40007;;;-50,02717447
2,40057;;;-45,44925835
2,40107;;;-39,3453702
2,40157;;;-31,10512119
2,40207;;;-20,11812252
2,40257;;;-10,35190147
2,40307;;;-5,468790946
2,40357;;;-3,942818907
2,40407;;;-1,501263646
2,40457;;;2,771458062
2,40507;;;7,04417977
2,40557;;;9,790929439
2,40607;;;11,62209589
2,40657;;;13,45326233
2,40707;;;14,97923437
2,40757;;;15,28442878
2,40807;;;14,67403996
2,40857;;;13,75845674
2,40907;;;13,75845674
2,40957;;;14,36884555
2,41007;;;14,97923437
2,41057;;;14,67403996
2,41107;;;12,53767911
2,41157;;;9,180540624
2,41207;;;5,823402139
2,41257;;;2,161069247
2,41307;;;-1,196069238
2,41357;;;-3,6376245
2,41407;;;-4,85840213
2,41457;;;-6,689568577
2,41507;;;-9,436318246
2,41557;;;-12,18306792
2,41607;;;-13,09865114
2,41657;;;-13,40384555
2,41707;;;-15,23501199
2,41757;;;-17,67656725
2,41807;;;-17,37137285
2,41857;;;-13,70903995
2,41907;;;-10,04670706
2,41957;;;-8,520735023
2,42007;;;-7,910346207
2,42057;;;-5,773985354
2,42107;;;-2,722041276
2,42157;;;-1,196069238
2,42207;;;-0,5856804226
2,42257;;;0,9402916159
2,42307;;;3,07665247
2,42357;;;2,771458062
2,42407;;;0,02470839283
2,42457;;;-1,806458053
2,42507;;;-2,111652461
2,42557;;;-2,416846869
2,42607;;;-3,332430092
2,42657;;;-2,722041276
2,42707;;;0,6350972082
2,42757;;;4,297430101
2,42807;;;6,128596547
2,42857;;;7,654568585
2,42907;;;10,09612385
2,42957;;;11,92729029
2,43007;;;11,31690148
2,43057;;;10,09612385
2,43107;;;10,40131825
2,43157;;;11,92729029
2,43207;;;11,62209589
2,43257;;;11,31690148
2,43307;;;13,75845674
2,43357;;;17,11559522
2,43407;;;16,81040082
2,43457;;;12,84287352
2,43507;;;8,875346216
2,43557;;;6,433790955
2,43607;;;2,466263654
2,43657;;;-3,332430092
2,43707;;;-8,215540615
2,43757;;;-9,131123838
2,43807;;;-10,04670706
2,43857;;;-14,31942877
2,43907;;;-20,42331692
2,43957;;;-25,30642745
2,44007;;;-29,57914915
2,44057;;;-35,98823172
2,44107;;;-41,17653665
2,44157;;;-38,12459257
2,44207;;;-25,91681626
2,44257;;;-10,35190147
2,44307;;;4,297430101
2,44357;;;18,33637285
2,44407;;;31,76492679
2,44457;;;41,22595343
2,44507;;;44,88828632
2,44557;;;46,10906396
2,44607;;;46,71945277
2,44656;;;44,27789751
2,44706;;;38,17400936
2,44756;;;34,81687087
2,44806;;;41,22595343
2,44856;;;52,82334093
2,44906;;;56,79086823
2,44956;;;47,02464718
2,45006;;;29,93376035
2,45056;;;15,89481759
2,45106;;;6,433790955
2,45156;;;-2,111652461
2,45206;;;-12,18306792
2,45256;;;-20,72851133
2,45306;;;-26,22201067
2,45356;;;-29,57914915
2,45406;;;-32,32589882
2,45456;;;-34,76745409
2,45506;;;-37,51420375
2,45556;;;-39,65056461
2,45606;;;-41,48173105
2,45656;;;-42,70250869
2,45706;;;-43,61809191
2,45756;;;-43,92328632
2,45806;;;-41,78692546
2,45856;;;-36,59862053
2,45906;;;-31,10512119
2,45956;;;-27,13759389
2,46006;;;-23,78045541
2,46056;;;-19,81292811
2,46106;;;-16,15059522
2,46156;;;-13,09865114
2,46206;;;-9,131123838
2,46256;;;-3,942818907
2,46306;;;0,02470839283
2,46356;;;1,855874839
2,46406;;;3,381846878
2,46456;;;7,04417977
2,46506;;;11,01170707
2,46556;;;11,62209589
2,46606;;;8,570151808
2,46656;;;6,128596547
2,46706;;;6,128596547
2,46756;;;5,823402139
2,46806;;;3,381846878
2,46856;;;-0,2804860149
2,46906;;;-3,332430092
2,46956;;;-6,689568577
2,47006;;;-10,96229028
2,47056;;;-14,92981758
2,47106;;;-16,76098403
2,47156;;;-15,84540081
2,47206;;;-13,40384555
2,47256;;;-10,65709588
2,47306;;;-8,520735023
2,47356;;;-5,773985354
2,47406;;;-2,722041276
2,47456;;;-0,2804860149
2,47506;;;0,6350972082
2,47556;;;0,9402916159
2,47606;;;1,550680431
2,47656;;;3,07665247
2,47706;;;4,907818916
2,47756;;;5,518207731
2,47806;;;6,433790955
2,47856;;;7,959762993
2,47906;;;10,09612385
2,47956;;;10,70651266
2,48006;;;8,570151808
2,48056;;;3,07665247
2,48106;;;-3,332430092
2,48156;;;-6,689568577
2,48206;;;-4,248013315
2,48256;;;0,3299028005
2,48306;;;3,07665247
2,48356;;;3,992235693
2,48406;;;6,738985362
2,48456;;;11,31690148
2,48506;;;11,92729029
2,48556;;;6,738985362
2,48606;;;1,855874839
2,48656;;;3,381846878
2,48706;;;10,70651266
2,48756;;;17,42078963
2,48806;;;21,38831693
2,48856;;;22,91428897
2,48906;;;21,38831693
2,48956;;;16,81040082
2,49006;;;11,92729029
2,49056;;;10,40131825
2,49106;;;11,31690148
2,49156;;;11,01170707
2,49206;;;8,264957401
2,49256;;;4,297430101
2,49306;;;0,3299028005
2,49356;;;-2,111652461
2,49406;;;-0,5856804226
2,49456;;;4,907818916
2,49506;;;9,790929439
2,49556;;;11,92729029
2,49606;;;17,72598404
2,49656;;;34,20648206
2,49706;;;57,09606263
2,49756;;;72,35578302
2,49806;;;72,66097743
2,49856;;;62,89475638
2,49906;;;51,9077577
2,49956;;;40,92075902
2,50006;;;26,88181627
2,50056;;;9,790929439
2,50106;;;-6,384374169
2,50156;;;-19,5077337
2,50206;;;-28,96876034
2,50256;;;-35,68303731
2,50305;;;-40,26095342
2,50355;;;-43,00770309
2,50405;;;-43,3128975
2,50455;;;-41,17653665
2,50505;;;-37,81939816
2,50555;;;-35,07264849
2,50605;;;-33,24148205
2,50655;;;-31,4103156
2,50705;;;-28,35837152
2,50755;;;-25,61162185
2,50805;;;-24,08564982
2,50855;;;-22,55967778
2,50905;;;-20,11812252
2,50955;;;-17,06617844
2,51005;;;-13,70903995
2,51055;;;-11,26748469
2,51105;;;-10,04670706
2,51155;;;-10,96229028
2,51205;;;-12,18306792
2,51255;;;-12,18306792
2,51305;;;-10,65709588
2,51355;;;-9,741512654
2,51405;;;-10,35190147
2,51455;;;-10,35190147
2,51505;;;-8,520735023
2,51555;;;-6,994762984
2,51605;;;-6,689568577
2,51655;;;-6,689568577
2,51705;;;-5,773985354
2,51755;;;-3,942818907
2,51805;;;-2,722041276
2,51855;;;-1,501263646
2,51905;;;0,02470839283
2,51955;;;1,245486024
2,52005;;;0,3299028005
2,52055;;;-0,2804860149
2,52105;;;-0,2804860149
2,52155;;;-1,501263646
2,52205;;;-5,773985354
2,52255;;;-10,96229028
2,52305;;;-13,40384555
2,52355;;;-10,65709588
2,52405;;;-5,468790946
2,52455;;;-0,2804860149
2,52505;;;3,07665247
2,52555;;;5,213013324
2,52605;;;6,433790955
2,52655;;;7,654568585
2,52705;;;10,40131825
2,52755;;;11,92729029
2,52805;;;9,485735032
2,52855;;;5,213013324
2,52905;;;2,466263654
2,52955;;;2,466263654
2,53005;;;1,855874839
2,53055;;;0,02470839283
2,53105;;;-0,2804860149
2,53155;;;0,6350972082
2,53205;;;0,6350972082
2,53255;;;-1,806458053
2,53305;;;-3,942818907
2,53355;;;-2,111652461
2,53405;;;2,161069247
2,53455;;;6,128596547
2,53505;;;8,264957401
2,53555;;;11,31690148
2,53605;;;15,89481759
2,53655;;;18,94676167
2,53705;;;18,64156726
2,53755;;;17,11559522
2,53805;;;16,50520641
2,53855;;;16,200012
2,53905;;;13,75845674
2,53955;;;8,570151808
2,54005;;;3,07665247
2,54055;;;0,02470839283
2,54105;;;-1,806458053
2,54155;;;-5,773985354
2,54205;;;-11,5726791
2,54255;;;-16,15059522
2,54305;;;-17,37137285
2,54355;;;-16,45578962
2,54405;;;-14,62462318
2,54455;;;-10,96229028
2,54505;;;-4,85840213
2,54555;;;0,02470839283
2,54605;;;2,771458062
2,54655;;;3,992235693
2,54705;;;5,823402139
2,54755;;;5,823402139
2,54805;;;3,381846878
2,54855;;;5,213013324
2,54905;;;17,42078963
2,54955;;;36,64803732
2,55005;;;52,51814652
2,55055;;;58,62203467
2,55105;;;57,09606263
2,55155;;;52,21295211
2,55205;;;44,27789751
2,55255;;;32,98570442
2,55305;;;22,30390016
2,55355;;;14,67403996
2,55405;;;7,654568585
2,55455;;;-3,332430092
2,55505;;;-18,28695607
2,55555;;;-33,54667645
2,55605;;;-45,14406395
2,55655;;;-51,85834092
2,55705;;;-53,99470177
2,55755;;;-52,16353532
2,55805;;;-48,80639684
2,55855;;;-45,14406395
2,55904;;;-40,87134224
2,55954;;;-35,07264849
2,56004;;;-26,83239948
2,56054;;;-17,67656725
2,56104;;;-8,520735023
2,56154;;;-0,5856804226
2,56204;;;5,823402139
2,56254;;;10,09612385
2,56304;;;9,485735032
2,56354;;;2,161069247
2,56404;;;-6,994762984
2,56454;;;-11,5726791
2,56504;;;-10,04670706
2,56554;;;-7,910346207
2,56604;;;-6,994762984
2,56654;;;-3,027235684
2,56704;;;8,264957401
2,56754;;;22,30390016
2,56804;;;29,32337153
2,56854;;;28,40778831
2,56904;;;26,88181627
2,56954;;;27,49220509
2,57004;;;24,44026101
2,57054;;;13,14806792
2,57104;;;-1,806458053
2,57154;;;-12,48826232
2,57204;;;-18,59215048
2,57254;;;-23,78045541
2,57304;;;-27,74798271
2,57354;;;-25,91681626
2,57404;;;-17,06617844
2,57454;;;-6,384374169
2,57504;;;-3,027235684
2,57554;;;-9,131123838
2,57604;;;-18,89734488
2,57654;;;-24,39084422
2,57704;;;-22,86487218
2,57754;;;-17,37137285
2,57804;;;-12,79345673
2,57854;;;-11,87787351
2,57904;;;-12,48826232
2,57954;;;-11,87787351
2,58004;;;-9,436318246
2,58054;;;-6,079179761
2,58104;;;-2,111652461
2,58154;;;3,07665247
2,58204;;;8,570151808
2,58254;;;11,62209589
2,58304;;;11,31690148
2,58354;;;10,09612385
2,58404;;;11,31690148
2,58454;;;14,06365115
2,58504;;;14,97923437
2,58554;;;12,84287352
2,58604;;;9,790929439
2,58654;;;7,654568585
2,58704;;;5,823402139
2,58754;;;3,381846878
2,58804;;;2,466263654
2,58854;;;4,297430101
2,58904;;;7,349374178
2,58954;;;8,264957401
2,59004;;;6,738985362
2,59054;;;4,907818916
2,59104;;;3,381846878
2,59154;;;2,161069247
2,59204;;;0,9402916159
2,59254;;;-0,2804860149
2,59304;;;-0,5856804226
2,59354;;;-1,501263646
2,59404;;;-2,416846869
2,59454;;;-3,942818907
2,59504;;;-4,248013315
2,59554;;;-3,942818907
2,59604;;;-2,416846869
2,59654;;;-0,8908748303
2,59704;;;0,02470839283
2,59754;;;0,6350972082
2,59804;;;0,3299028005
2,59854;;;0,6350972082
2,59904;;;1,855874839
2,59954;;;3,381846878
2,60004;;;4,297430101
2,60054;;;3,07665247
2,60104;;;0,9402916159
2,60154;;;-0,5856804226
2,60204;;;-0,5856804226
2,60254;;;0,9402916159
2,60304;;;3,687041285
2,60354;;;6,128596547
2,60404;;;7,349374178
2,60454;;;7,654568585
2,60504;;;7,04417977
2,60554;;;6,738985362
2,60604;;;6,738985362
2,60654;;;6,738985362
2,60704;;;6,738985362
2,60754;;;5,823402139
2,60804;;;4,907818916
2,60854;;;3,992235693
2,60904;;;4,297430101
2,60954;;;5,213013324
2,61004;;;5,213013324
2,61054;;;3,687041285
2,61104;;;1,550680431
2,61154;;;0,6350972082
2,61204;;;-0,2804860149
2,61254;;;-2,722041276
2,61304;;;-6,079179761
2,61354;;;-7,6051518
2,61404;;;-6,384374169
2,61454;;;-3,332430092
2,61504;;;-1,196069238
2,61553;;;0,3299028005
2,61603;;;1,855874839
2,61653;;;2,771458062
2,61703;;;2,771458062
2,61753;;;2,771458062
2,61803;;;3,992235693
2,61853;;;5,823402139
2,61903;;;5,823402139
2,61953;;;3,992235693
2,62003;;;3,07665247
2,62053;;;4,297430101
2,62103;;;6,128596547
2,62153;;;5,823402139
2,62203;;;2,771458062
2,62253;;;-0,5856804226
2,62303;;;-3,027235684
2,62353;;;-3,942818907
2,62403;;;-4,248013315
2,62453;;;-3,027235684
2,62503;;;-0,2804860149
2,62553;;;3,381846878
2,62603;;;7,654568585
2,62653;;;11,31690148
2,62703;;;12,84287352
2,62753;;;10,70651266
2,62803;;;6,128596547
2,62853;;;2,466263654
2,62903;;;1,245486024
2,62953;;;0,6350972082
2,63003;;;-0,8908748303
2,63053;;;-3,332430092
2,63103;;;-3,942818907
2,63153;;;-3,6376245
2,63203;;;-4,248013315
2,63253;;;-4,85840213
2,63303;;;-4,248013315
2,63353;;;-3,332430092
2,63403;;;-5,468790946
2,63453;;;-11,87787351
2,63503;;;-18,28695607
2,63553;;;-21,64409455
2,63603;;;-22,25448337
2,63653;;;-21,03370574
2,63703;;;-18,28695607
2,63753;;;-13,70903995
2,63803;;;-9,131123838
2,63853;;;-3,332430092
2,63903;;;3,381846878
2,63953;;;10,09612385
2,64003;;;11,92729029
2,64053;;;10,40131825
2,64103;;;12,2324847
2,64153;;;20,77792812
2,64203;;;30,54414916
2,64253;;;33,59609324
2,64303;;;29,62856594
2,64353;;;25,05064982
2,64403;;;21,08312252
2,64453;;;13,45326233
2,64503;;;2,161069247
2,64553;;;-3,942818907
2,64603;;;0,6350972082
2,64653;;;10,70651266
2,64703;;;15,28442878
2,64753;;;11,01170707
2,64803;;;3,07665247
2,64853;;;-3,027235684
2,64903;;;-8,825929431
2,64953;;;-14,31942877
2,65003;;;-16,45578962
2,65053;;;-12,48826232
2,65103;;;-6,689568577
2,65153;;;-3,332430092
2,65203;;;-2,416846869
2,65253;;;-0,8908748303
2,65303;;;1,550680431
