"type";"begin_time";"frequency";"count";"created with version";"exported with version";"last_name";"first_name";"born";"sex";"measurement_date";"record_name"
"record";"0,00000";"2000.4";"42520";"Noraxon myoRESEARCH Software 4.2.22";"4.2.22";"MyoMetrics Demo Record";"";"";"male";"2025-12-02T11:31:19.387+01:00";"Free Capture"

"time";"Activity";"Marker";"BICEPS BR. LT (uV)"
0,00000;"Activity";;-9,373022054
0,00050;;;-5,100300347
0,00100;;;-0,2171898234
0,00150;;;1,003587807
0,00200;;;1,003587807
0,00250;;;6,191892738
0,00300;;;19,62044668
0,00350;;;35,79575029
0,00400;;;43,73080489
0,00450;;;40,98405522
0,00500;;;34,26977825
0,00550;;;31,52302858
0,00600;;;32,13341739
0,00650;;;31,52302858
0,00700;;;28,4710845
0,00750;;;26,94511246
0,00800;;;27,55550128
0,00850;;;26,63991805
0,00900;;;22,67239075
0,00950;;;18,09447464
0,01000;;;15,95811378
0,01050;;;14,43214175
0,01100;;;11,38019767
0,01150;;;7,412670369
0,01200;;;4,6659207
0,01250;;;0,6983933997
0,01300;;;-6,626272385
0,01350;;;-15,1717158
0,01400;;;-20,66521514
0,01450;;;-24,32754803
0,01500;;;-27,98988092
0,01550;;;-29,82104737
0,01600;;;-27,68468652
0,01650;;;-24,93793685
0,01700;;;-24,93793685
0,01750;;;-26,15871448
0,01800;;;-24,93793685
0,01850;;;-21,58079836
0,01900;;;-20,36002073
0,01950;;;-19,74963192
0,02000;;;-16,08729902
0,02050;;;-11,50938291
0,02100;;;-9,678216462
0,02150;;;-9,373022054
0,02200;;;-5,405494754
0,02250;;;1,919171031
0,02300;;;7,717864777
0,02350;;;11,99058648
0,02400;;;18,39966905
0,02450;;;26,63991805
0,02500;;;30,30225095
0,02550;;;28,16589009
0,02600;;;25,72433483
0,02650;;;24,5035572
0,02700;;;22,36719635
0,02750;;;18,70486345
0,02800;;;17,78928023
0,02849;;;18,70486345
0,02899;;;17,48408582
0,02949;;;12,29578089
0,02999;;;7,717864777
0,03049;;;6,191892738
0,03099;;;4,971115108
0,03149;;;1,613976623
0,03199;;;-2,353550677
0,03249;;;-6,931466793
0,03299;;;-13,95093817
0,03349;;;-22,19118718
0,03399;;;-28,29507533
0,03449;;;-31,95740822
0,03499;;;-35,0093523
0,03549;;;-36,23012993
0,03599;;;-34,09376908
0,03649;;;-30,12624178
0,03699;;;-29,21065856
0,03749;;;-30,12624178
0,03799;;;-28,29507533
0,03849;;;-24,32754803
0,03899;;;-21,27560395
0,03949;;;-20,05482632
0,03999;;;-17,30807665
0,04049;;;-13,34054935
0,04099;;;-11,50938291
0,04149;;;-10,59379969
0,04199;;;-6,01588357
0,04249;;;1,919171031
0,04299;;;9,243836815
0,04349;;;14,12694734
0,04399;;;20,23083549
0,04449;;;27,86069569
0,04499;;;31,82822299
0,04549;;;30,30225095
0,04599;;;27,55550128
0,04649;;;26,33472365
0,04699;;;25,11394602
0,04749;;;23,58797398
0,04799;;;23,89316839
0,04849;;;25,11394602
0,04899;;;23,58797398
0,04949;;;19,31525227
0,04999;;;15,95811378
0,05049;;;15,04253056
0,05099;;;13,21136412
0,05149;;;8,938642408
0,05199;;;4,6659207
0,05249;;;0,6983933997
0,05299;;;-5,710689162
0,05349;;;-14,25613258
0,05399;;;-20,66521514
0,05449;;;-23,1067704
0,05499;;;-24,32754803
0,05549;;;-25,24313125
0,05599;;;-23,71715922
0,05649;;;-20,66521514
0,05699;;;-19,1392431
0,05749;;;-20,05482632
0,05799;;;-20,05482632
0,05849;;;-17,91846547
0,05899;;;-16,08729902
0,05949;;;-14,56132699
0,05999;;;-10,59379969
0,06049;;;-6,01588357
0,06099;;;-4,795105939
0,06149;;;-4,795105939
0,06199;;;-0,2171898234
0,06249;;;8,633448
0,06299;;;15,95811378
0,06349;;;20,5360299
0,06399;;;26,94511246
0,06449;;;35,49055588
0,06499;;;39,45808318
0,06549;;;36,10094469
0,06599;;;32,4386118
0,06649;;;33,04900062
0,06699;;;32,13341739
0,06749;;;26,63991805
0,06799;;;24,19836279
0,06849;;;30,30225095
0,06899;;;37,32172232
0,06949;;;33,35419502
0,06999;;;19,62044668
0,07049;;;8,938642408
0,07099;;;6,497087146
0,07149;;;6,191892738
0,07199;;;1,308782215
0,07249;;;-6,01588357
0,07299;;;-13,03535495
0,07349;;;-18,83404869
0,07399;;;-25,24313125
0,07449;;;-31,041825
0,07499;;;-33,78857467
0,07549;;;-33,17818586
0,07599;;;-31,041825
0,07649;;;-29,82104737
0,07699;;;-30,43143619
0,07749;;;-30,43143619
0,07799;;;-29,21065856
0,07849;;;-27,68468652
0,07899;;;-26,15871448
0,07949;;;-23,1067704
0,07999;;;-18,83404869
0,08049;;;-15,78210462
0,08099;;;-14,86652139
0,08149;;;-13,34054935
0,08199;;;-8,152244424
0,08249;;;-1,437967454
0,08299;;;4,055531884
0,08349;;;10,15942004
0,08399;;;17,78928023
0,08448;;;24,5035572
0,08498;;;26,33472365
0,08548;;;25,41914042
0,08598;;;24,80875161
0,08648;;;24,19836279
0,08698;;;22,36719635
0,08748;;;20,84122431
0,08798;;;21,75680753
0,08848;;;22,06200194
0,08898;;;18,70486345
0,08948;;;14,12694734
0,08998;;;12,29578089
0,09048;;;11,38019767
0,09098;;;8,328253592
0,09148;;;4,360726292
0,09198;;;1,613976623
0,09248;;;-1,743161862
0,09298;;;-9,678216462
0,09348;;;-18,83404869
0,09398;;;-24,02235362
0,09448;;;-26,15871448
0,09498;;;-28,60026974
0,09548;;;-30,12624178
0,09598;;;-27,68468652
0,09648;;;-24,02235362
0,09698;;;-23,41196481
0,09748;;;-23,71715922
0,09798;;;-22,19118718
0,09848;;;-19,1392431
0,09898;;;-17,61327106
0,09948;;;-15,78210462
0,09998;;;-11,50938291
0,10048;;;-7,236661201
0,10098;;;-6,321077977
0,10148;;;-5,405494754
0,10198;;;0,08800458433
0,10248;;;8,328253592
0,10298;;;14,43214175
0,10348;;;19,62044668
0,10398;;;26,94511246
0,10448;;;33,65938943
0,10498;;;35,18536147
0,10548;;;32,74380621
0,10598;;;31,52302858
0,10648;;;30,91263976
0,10698;;;28,16589009
0,10748;;;25,11394602
0,10798;;;25,41914042
0,10848;;;26,94511246
0,10898;;;24,80875161
0,10948;;;19,31525227
0,10998;;;15,65291938
0,11048;;;14,12694734
0,11098;;;10,76980885
0,11148;;;5,886698331
0,11198;;;1,613976623
0,11248;;;-2,963939493
0,11298;;;-10,28860528
0,11348;;;-19,44443751
0,11398;;;-26,15871448
0,11448;;;-30,12624178
0,11498;;;-32,87299145
0,11548;;;-34,09376908
0,11598;;;-32,56779704
0,11648;;;-30,12624178
0,11698;;;-29,82104737
0,11748;;;-30,43143619
0,11798;;;-29,51585296
0,11848;;;-27,37949211
0,11898;;;-25,54832566
0,11948;;;-23,1067704
0,11998;;;-19,44443751
0,12048;;;-16,08729902
0,12098;;;-14,86652139
0,12148;;;-13,64574376
0,12198;;;-8,762633239
0,12248;;;-1,437967454
0,12298;;;5,276309515
0,12348;;;11,38019767
0,12398;;;17,78928023
0,12448;;;23,58797398
0,12498;;;26,33472365
0,12548;;;25,11394602
0,12598;;;21,75680753
0,12648;;;19,62044668
0,12698;;;19,62044668
0,12748;;;19,62044668
0,12798;;;16,5685026
0,12848;;;12,6009753
0,12898;;;14,43214175
0,12948;;;21,14641872
0,12998;;;23,58797398
0,13048;;;14,12694734
0,13098;;;0,08800458433
0,13148;;;-6,321077977
0,13198;;;-6,321077977
0,13248;;;-9,98341087
0,13298;;;-20,05482632
0,13348;;;-29,51585296
0,13398;;;-33,17818586
0,13448;;;-35,0093523
0,13498;;;-38,36649079
0,13548;;;-38,9768796
0,13598;;;-35,31454671
0,13648;;;-31,95740822
0,13698;;;-31,34701941
0,13748;;;-31,041825
0,13798;;;-27,98988092
0,13848;;;-24,63274244
0,13898;;;-23,1067704
0,13948;;;-20,36002073
0,13998;;;-15,47691021
0,14048;;;-11,81457732
0,14097;;;-11,2041885
0,14147;;;-9,373022054
0,14197;;;-2,658745085
0,14247;;;4,971115108
0,14297;;;10,46461445
0,14347;;;16,26330819
0,14397;;;24,5035572
0,14447;;;31,52302858
0,14497;;;32,4386118
0,14547;;;30,30225095
0,14597;;;29,99705654
0,14647;;;29,99705654
0,14697;;;28,16589009
0,14747;;;25,72433483
0,14797;;;26,33472365
0,14847;;;26,63991805
0,14897;;;23,58797398
0,14947;;;18,70486345
0,14997;;;16,87369701
0,15047;;;17,17889142
0,15097;;;15,04253056
0,15147;;;10,15942004
0,15197;;;5,276309515
0,15247;;;0,393198992
0,15297;;;-6,626272385
0,15347;;;-14,86652139
0,15397;;;-21,27560395
0,15447;;;-24,63274244
0,15497;;;-26,46390889
0,15547;;;-26,15871448
0,15597;;;-23,41196481
0,15647;;;-20,66521514
0,15697;;;-20,36002073
0,15747;;;-20,97040955
0,15797;;;-19,1392431
0,15847;;;-16,39249343
0,15897;;;-14,86652139
0,15947;;;-13,34054935
0,15997;;;-9,373022054
0,16047;;;-5,405494754
0,16097;;;-4,795105939
0,16147;;;-4,184717123
0,16197;;;1,003587807
0,16247;;;8,938642408
0,16297;;;14,73733615
0,16347;;;19,01005786
0,16397;;;25,72433483
0,16447;;;32,74380621
0,16497;;;34,88016706
0,16547;;;32,4386118
0,16597;;;29,99705654
0,16647;;;28,77627891
0,16697;;;26,94511246
0,16747;;;25,11394602
0,16797;;;24,80875161
0,16847;;;24,5035572
0,16897;;;21,14641872
0,16947;;;15,95811378
0,16997;;;13,51655852
0,17047;;;12,6009753
0,17097;;;9,549031223
0,17147;;;4,971115108
0,17197;;;0,6983933997
0,17247;;;-3,2691339
0,17297;;;-10,28860528
0,17347;;;-18,22365988
0,17397;;;-24,32754803
0,17447;;;-28,29507533
0,17497;;;-30,73663059
0,17547;;;-30,73663059
0,17597;;;-27,0742977
0,17647;;;-24,02235362
0,17697;;;-24,63274244
0,17747;;;-26,15871448
0,17797;;;-24,63274244
0,17847;;;-21,58079836
0,17897;;;-20,05482632
0,17947;;;-18,52885429
0,17997;;;-14,25613258
0,18047;;;-10,59379969
0,18097;;;-9,98341087
0,18147;;;-8,762633239
0,18197;;;-2,963939493
0,18247;;;4,6659207
0,18297;;;10,46461445
0,18347;;;16,26330819
0,18397;;;23,89316839
0,18447;;;30,91263976
0,18497;;;32,13341739
0,18547;;;29,99705654
0,18597;;;28,16589009
0,18647;;;26,63991805
0,18697;;;24,80875161
0,18747;;;24,80875161
0,18797;;;26,94511246
0,18847;;;26,02952924
0,18897;;;19,92564108
0,18947;;;14,43214175
0,18997;;;13,82175293
0,19047;;;13,51655852
0,19097;;;9,549031223
0,19147;;;5,276309515
0,19197;;;3,445143069
0,19247;;;0,393198992
0,19297;;;-6,931466793
0,19347;;;-15,78210462
0,19397;;;-21,88599277
0,19447;;;-26,46390889
0,19497;;;-29,51585296
0,19547;;;-27,98988092
0,19597;;;-24,02235362
0,19647;;;-24,32754803
0,19696;;;-26,46390889
0,19746;;;-19,74963192
0,19796;;;-5,710689162
0,19846;;;-0,8275786388
0,19896;;;-11,2041885
0,19946;;;-20,66521514
0,19996;;;-16,69768784
0,20046;;;-8,457438831
0,20096;;;-8,457438831
0,20146;;;-10,89899409
0,20196;;;-4,489911531
0,20246;;;6,191892738
0,20296;;;11,38019767
0,20346;;;14,43214175
0,20396;;;23,89316839
0,20446;;;34,26977825
0,20496;;;35,18536147
0,20546;;;29,38666772
0,20596;;;27,25030687
0,20646;;;28,77627891
0,20696;;;26,33472365
0,20746;;;22,06200194
0,20796;;;22,97758516
0,20846;;;26,33472365
0,20896;;;23,58797398
0,20946;;;17,17889142
0,20996;;;14,43214175
0,21046;;;14,73733615
0,21096;;;11,99058648
0,21146;;;5,886698331
0,21196;;;2,224365438
0,21246;;;0,08800458433
0,21296;;;-6,931466793
0,21346;;;-17,00288225
0,21396;;;-23,71715922
0,21446;;;-25,54832566
0,21496;;;-27,0742977
0,21546;;;-28,29507533
0,21596;;;-26,46390889
0,21646;;;-23,1067704
0,21696;;;-22,49638159
0,21746;;;-23,41196481
0,21796;;;-21,58079836
0,21846;;;-18,22365988
0,21896;;;-17,00288225
0,21946;;;-16,08729902
0,21996;;;-12,42496613
0,22046;;;-8,152244424
0,22096;;;-6,931466793
0,22146;;;-6,01588357
0,22196;;;-0,5223842311
0,22246;;;6,497087146
0,22296;;;11,99058648
0,22346;;;17,17889142
0,22396;;;24,80875161
0,22446;;;31,52302858
0,22496;;;32,13341739
0,22546;;;29,08147332
0,22596;;;27,86069569
0,22646;;;28,16589009
0,22696;;;25,72433483
0,22746;;;22,97758516
0,22796;;;23,28277957
0,22846;;;24,5035572
0,22896;;;21,45161312
0,22946;;;15,95811378
0,22996;;;13,82175293
0,23046;;;13,82175293
0,23096;;;11,38019767
0,23146;;;6,802281554
0,23196;;;3,445143069
0,23246;;;0,08800458433
0,23296;;;-7,847050016
0,23346;;;-17,61327106
0,23396;;;-23,41196481
0,23446;;;-24,93793685
0,23496;;;-26,46390889
0,23546;;;-27,68468652
0,23596;;;-26,15871448
0,23646;;;-22,49638159
0,23696;;;-21,27560395
0,23746;;;-21,88599277
0,23796;;;-20,36002073
0,23846;;;-17,00288225
0,23896;;;-14,86652139
0,23946;;;-13,64574376
0,23996;;;-9,98341087
0,24046;;;-6,321077977
0,24096;;;-5,100300347
0,24146;;;-4,489911531
0,24196;;;0,393198992
0,24246;;;8,633448
0,24296;;;15,04253056
0,24346;;;19,92564108
0,24396;;;27,25030687
0,24446;;;34,57497265
0,24496;;;35,49055588
0,24546;;;31,21783417
0,24596;;;28,4710845
0,24646;;;28,4710845
0,24696;;;27,55550128
0,24746;;;23,89316839
0,24796;;;22,67239075
0,24846;;;24,19836279
0,24896;;;23,58797398
0,24946;;;19,01005786
0,24996;;;14,73733615
0,25046;;;13,21136412
0,25096;;;10,76980885
0,25146;;;6,191892738
0,25196;;;2,529559846
0,25246;;;0,08800458433
0,25296;;;-5,405494754
0,25345;;;-15,1717158
0,25395;;;-24,32754803
0,25445;;;-29,21065856
0,25495;;;-32,26260263
0,25545;;;-35,92493552
0,25595;;;-37,14571316
0,25645;;;-34,39896349
0,25695;;;-31,041825
0,25745;;;-30,73663059
0,25795;;;-31,34701941
0,25845;;;-30,43143619
0,25895;;;-28,29507533
0,25945;;;-26,15871448
0,25995;;;-23,41196481
0,26045;;;-20,05482632
0,26095;;;-16,69768784
0,26145;;;-14,86652139
0,26195;;;-12,73016054
0,26245;;;-8,457438831
0,26295;;;-1,743161862
0,26345;;;5,581503923
0,26395;;;11,99058648
0,26445;;;16,26330819
0,26495;;;21,14641872
0,26545;;;29,99705654
0,26595;;;39,45808318
0,26645;;;39,76327759
0,26695;;;27,55550128
0,26745;;;14,43214175
0,26795;;;11,99058648
0,26845;;;17,48408582
0,26895;;;17,78928023
0,26945;;;10,46461445
0,26995;;;5,276309515
0,27045;;;6,802281554
0,27095;;;7,412670369
0,27145;;;3,139948661
0,27195;;;-0,8275786388
0,27245;;;-2,353550677
0,27295;;;-5,405494754
0,27345;;;-13,95093817
0,27395;;;-23,1067704
0,27445;;;-27,68468652
0,27495;;;-29,51585296
0,27545;;;-31,65221382
0,27595;;;-32,26260263
0,27645;;;-29,21065856
0,27695;;;-26,46390889
0,27745;;;-27,0742977
0,27795;;;-28,29507533
0,27845;;;-27,0742977
0,27895;;;-24,63274244
0,27945;;;-23,1067704
0,27995;;;-20,36002073
0,28045;;;-15,47691021
0,28095;;;-12,42496613
0,28145;;;-12,73016054
0,28195;;;-11,50938291
0,28245;;;-4,795105939
0,28295;;;2,529559846
0,28345;;;7,107475961
0,28395;;;12,29578089
0,28445;;;21,45161312
0,28495;;;29,69186213
0,28545;;;30,30225095
0,28595;;;26,02952924
0,28645;;;23,58797398
0,28695;;;23,89316839
0,28745;;;22,97758516
0,28795;;;21,14641872
0,28845;;;21,75680753
0,28895;;;22,67239075
0,28945;;;19,92564108
0,28995;;;15,04253056
0,29045;;;12,90616971
0,29095;;;12,29578089
0,29145;;;10,46461445
0,29195;;;7,107475961
0,29245;;;4,360726292
0,29295;;;0,393198992
0,29345;;;-6,931466793
0,29395;;;-15,78210462
0,29445;;;-21,27560395
0,29495;;;-24,02235362
0,29545;;;-27,0742977
0,29595;;;-28,29507533
0,29645;;;-25,85352007
0,29695;;;-21,88599277
0,29745;;;-21,58079836
0,29795;;;-23,1067704
0,29845;;;-21,88599277
0,29895;;;-18,52885429
0,29945;;;-16,39249343
0,29995;;;-14,56132699
0,30045;;;-11,2041885
0,30095;;;-8,457438831
0,30145;;;-8,152244424
0,30195;;;-6,931466793
0,30245;;;-1,743161862
0,30295;;;4,6659207
0,30345;;;9,549031223
0,30395;;;15,34772497
0,30445;;;23,58797398
0,30495;;;29,99705654
0,30545;;;29,99705654
0,30595;;;26,63991805
0,30645;;;25,72433483
0,30695;;;24,80875161
0,30745;;;21,45161312
0,30795;;;19,01005786
0,30845;;;20,84122431
0,30895;;;22,06200194
0,30944;;;17,48408582
0,30994;;;10,76980885
0,31044;;;8,023059185
0,31094;;;7,717864777
0,31144;;;4,6659207
0,31194;;;0,08800458433
0,31244;;;-2,658745085
0,31294;;;-6,01588357
0,31344;;;-14,25613258
0,31394;;;-24,02235362
0,31444;;;-29,51585296
0,31494;;;-31,95740822
0,31544;;;-34,70415789
0,31594;;;-36,23012993
0,31644;;;-32,56779704
0,31694;;;-28,60026974
0,31744;;;-28,90546415
0,31794;;;-30,43143619
0,31844;;;-27,68468652
0,31894;;;-23,71715922
0,31944;;;-23,1067704
0,31994;;;-22,19118718
0,32044;;;-17,00288225
0,32094;;;-11,81457732
0,32144;;;-11,50938291
0,32194;;;-10,89899409
0,32244;;;-4,489911531
0,32294;;;3,445143069
0,32344;;;7,717864777
0,32394;;;12,29578089
0,32444;;;22,36719635
0,32494;;;29,69186213
0,32544;;;26,63991805
0,32594;;;22,06200194
0,32644;;;29,38666772
0,32694;;;40,98405522
0,32744;;;39,76327759
0,32794;;;25,11394602
0,32844;;;14,73733615
0,32894;;;15,34772497
0,32944;;;17,78928023
0,32994;;;14,12694734
0,33044;;;9,243836815
0,33094;;;8,023059185
0,33144;;;7,412670369
0,33194;;;3,750337477
0,33244;;;-0,8275786388
0,33294;;;-6,01588357
0,33344;;;-13,64574376
0,33394;;;-21,27560395
0,33444;;;-25,85352007
0,33494;;;-27,37949211
0,33544;;;-29,51585296
0,33594;;;-30,73663059
0,33644;;;-27,98988092
0,33694;;;-24,02235362
0,33744;;;-23,41196481
0,33794;;;-23,1067704
0,33844;;;-20,05482632
0,33894;;;-16,69768784
0,33944;;;-16,69768784
0,33994;;;-16,08729902
0,34044;;;-10,28860528
0,34094;;;-4,489911531
0,34144;;;-4,184717123
0,34194;;;-4,795105939
0,34244;;;0,393198992
0,34294;;;9,243836815
0,34344;;;14,73733615
0,34394;;;18,39966905
0,34444;;;26,63991805
0,34494;;;35,18536147
0,34544;;;36,71133351
0,34594;;;31,82822299
0,34644;;;29,38666772
0,34694;;;29,69186213
0,34744;;;28,4710845
0,34794;;;26,33472365
0,34844;;;28,16589009
0,34894;;;30,91263976
0,34944;;;27,86069569
0,34994;;;21,14641872
0,35044;;;17,78928023
0,35094;;;18,09447464
0,35144;;;16,26330819
0,35194;;;11,99058648
0,35244;;;8,633448
0,35294;;;5,276309515
0,35344;;;-2,353550677
0,35394;;;-12,42496613
0,35444;;;-18,83404869
0,35494;;;-20,97040955
0,35544;;;-23,1067704
0,35594;;;-24,02235362
0,35644;;;-20,97040955
0,35694;;;-17,30807665
0,35744;;;-17,61327106
0,35794;;;-20,05482632
0,35844;;;-19,1392431
0,35894;;;-15,1717158
0,35944;;;-13,03535495
0,35994;;;-12,11977172
0,36044;;;-8,762633239
0,36094;;;-4,795105939
0,36144;;;-3,879522716
0,36194;;;-3,2691339
0,36244;;;1,919171031
0,36294;;;10,15942004
0,36344;;;15,95811378
0,36394;;;19,92564108
0,36444;;;26,63991805
0,36494;;;33,96458384
0,36544;;;35,18536147
0,36593;;;31,52302858
0,36643;;;28,77627891
0,36693;;;29,08147332
0,36743;;;28,4710845
0,36793;;;26,33472365
0,36843;;;25,72433483
0,36893;;;26,33472365
0,36943;;;23,58797398
0,36993;;;18,39966905
0,37043;;;15,34772497
0,37093;;;15,34772497
0,37143;;;14,73733615
0,37193;;;11,07500326
0,37243;;;6,191892738
0,37293;;;0,6983933997
0,37343;;;-6,931466793
0,37393;;;-15,1717158
0,37443;;;-21,27560395
0,37493;;;-23,71715922
0,37543;;;-24,63274244
0,37593;;;-24,93793685
0,37643;;;-24,02235362
0,37693;;;-22,19118718
0,37743;;;-21,58079836
0,37793;;;-21,58079836
0,37843;;;-20,66521514
0,37893;;;-18,22365988
0,37943;;;-16,08729902
0,37993;;;-13,64574376
0,38043;;;-9,98341087
0,38093;;;-6,321077977
0,38143;;;-4,489911531
0,38193;;;-3,2691339
0,38243;;;0,08800458433
0,38293;;;6,802281554
0,38343;;;14,12694734
0,38393;;;19,62044668
0,38443;;;23,89316839
0,38493;;;30,60744535
0,38543;;;40,06847199
0,38593;;;46,47755455
0,38643;;;42,51002725
0,38693;;;29,99705654
0,38743;;;19,92564108
0,38793;;;19,92564108
0,38843;;;24,5035572
0,38893;;;24,19836279
0,38943;;;18,09447464
0,38993;;;13,51655852
0,39043;;;12,6009753
0,39093;;;11,38019767
0,39143;;;7,717864777
0,39193;;;4,360726292
0,39243;;;1,308782215
0,39293;;;-4,489911531
0,39343;;;-13,95093817
0,39393;;;-21,88599277
0,39443;;;-25,54832566
0,39493;;;-28,29507533
0,39543;;;-31,34701941
0,39593;;;-31,95740822
0,39643;;;-29,21065856
0,39693;;;-27,0742977
0,39743;;;-28,29507533
0,39793;;;-28,90546415
0,39843;;;-26,15871448
0,39893;;;-22,80157599
0,39943;;;-20,66521514
0,39993;;;-18,22365988
0,40043;;;-14,25613258
0,40093;;;-11,50938291
0,40143;;;-10,89899409
0,40193;;;-8,762633239
0,40243;;;-2,353550677
0,40293;;;5,276309515
0,40343;;;11,38019767
0,40393;;;17,17889142
0,40443;;;23,89316839
0,40493;;;28,77627891
0,40543;;;28,77627891
0,40593;;;26,63991805
0,40643;;;25,72433483
0,40693;;;25,41914042
0,40743;;;22,97758516
0,40793;;;20,23083549
0,40843;;;19,31525227
0,40893;;;19,01005786
0,40943;;;16,26330819
0,40993;;;11,99058648
0,41043;;;8,938642408
0,41093;;;6,497087146
0,41143;;;3,750337477
0,41193;;;0,393198992
0,41243;;;-2,963939493
0,41293;;;-8,457438831
0,41343;;;-16,08729902
0,41393;;;-23,71715922
0,41443;;;-29,82104737
0,41493;;;-33,78857467
0,41543;;;-36,23012993
0,41593;;;-35,31454671
0,41643;;;-32,56779704
0,41693;;;-30,73663059
0,41743;;;-31,34701941
0,41793;;;-31,34701941
0,41843;;;-29,21065856
0,41893;;;-26,46390889
0,41943;;;-24,63274244
0,41993;;;-21,88599277
0,42043;;;-18,22365988
0,42093;;;-15,78210462
0,42143;;;-15,78210462
0,42192;;;-13,64574376
0,42242;;;-7,236661201
0,42292;;;0,393198992
0,42342;;;6,802281554
0,42392;;;12,6009753
0,42442;;;19,62044668
0,42492;;;24,5035572
0,42542;;;24,5035572
0,42592;;;22,06200194
0,42642;;;20,23083549
0,42692;;;19,01005786
0,42742;;;17,78928023
0,42792;;;16,87369701
0,42842;;;17,17889142
0,42892;;;15,95811378
0,42942;;;11,99058648
0,42992;;;8,938642408
0,43042;;;7,717864777
0,43092;;;5,886698331
0,43142;;;2,224365438
0,43192;;;-1,132773046
0,43242;;;-4,489911531
0,43292;;;-10,28860528
0,43342;;;-19,44443751
0,43392;;;-27,37949211
0,43442;;;-31,95740822
0,43492;;;-35,0093523
0,43542;;;-37,45090756
0,43592;;;-36,23012993
0,43642;;;-31,65221382
0,43692;;;-28,60026974
0,43742;;;-29,21065856
0,43792;;;-29,21065856
0,43842;;;-25,54832566
0,43892;;;-20,66521514
0,43942;;;-18,22365988
0,43992;;;-16,08729902
0,44042;;;-12,42496613
0,44092;;;-8,762633239
0,44142;;;-7,236661201
0,44192;;;-4,795105939
0,44242;;;1,308782215
0,44292;;;8,938642408
0,44342;;;16,26330819
0,44392;;;23,28277957
0,44442;;;31,82822299
0,44492;;;37,93211114
0,44542;;;38,54249995
0,44592;;;35,79575029
0,44642;;;33,35419502
0,44692;;;32,13341739
0,44742;;;30,60744535
0,44792;;;29,08147332
0,44842;;;29,08147332
0,44892;;;28,77627891
0,44942;;;26,94511246
0,44992;;;22,36719635
0,45042;;;18,09447464
0,45092;;;15,65291938
0,45142;;;14,12694734
0,45192;;;9,549031223
0,45242;;;1,613976623
0,45292;;;-4,184717123
0,45342;;;-4,184717123
0,45392;;;-2,963939493
0,45442;;;-9,678216462
0,45492;;;-24,63274244
0,45542;;;-35,31454671
0,45592;;;-32,56779704
0,45642;;;-24,32754803
0,45692;;;-21,88599277
0,45742;;;-24,32754803
0,45792;;;-23,71715922
0,45842;;;-19,44443751
0,45892;;;-17,00288225
0,45942;;;-16,39249343
0,45992;;;-13,03535495
0,46042;;;-7,541855608
0,46092;;;-5,710689162
0,46142;;;-6,321077977
0,46192;;;-2,658745085
0,46242;;;5,581503923
0,46292;;;13,21136412
0,46342;;;18,39966905
0,46392;;;25,11394602
0,46442;;;33,96458384
0,46492;;;38,84769436
0,46542;;;37,62691673
0,46592;;;35,18536147
0,46642;;;34,57497265
0,46692;;;32,4386118
0,46742;;;28,77627891
0,46792;;;27,25030687
0,46842;;;28,4710845
0,46892;;;26,63991805
0,46942;;;20,84122431
0,46992;;;16,26330819
0,47042;;;15,04253056
0,47092;;;13,51655852
0,47142;;;8,633448
0,47192;;;3,139948661
0,47242;;;-0,2171898234
0,47292;;;-6,01588357
0,47342;;;-15,1717158
0,47392;;;-23,71715922
0,47442;;;-28,90546415
0,47492;;;-32,56779704
0,47542;;;-35,0093523
0,47592;;;-33,78857467
0,47642;;;-29,21065856
0,47692;;;-26,46390889
0,47742;;;-27,68468652
0,47792;;;-28,60026974
0,47841;;;-26,15871448
0,47891;;;-23,1067704
0,47941;;;-21,88599277
0,47991;;;-18,83404869
0,48041;;;-13,64574376
0,48091;;;-9,98341087
0,48141;;;-9,98341087
0,48191;;;-8,152244424
0,48241;;;-1,132773046
0,48291;;;7,412670369
0,48341;;;13,51655852
0,48391;;;19,62044668
0,48441;;;27,55550128
0,48491;;;33,04900062
0,48541;;;32,74380621
0,48591;;;29,08147332
0,48641;;;26,63991805
0,48691;;;25,72433483
0,48741;;;24,19836279
0,48791;;;22,67239075
0,48841;;;22,36719635
0,48891;;;20,84122431
0,48941;;;16,5685026
0,48991;;;12,6009753
0,49041;;;11,07500326
0,49091;;;9,854225631
0,49141;;;6,802281554
0,49191;;;2,224365438
0,49241;;;-2,658745085
0,49291;;;-9,678216462
0,49341;;;-18,52885429
0,49391;;;-25,85352007
0,49441;;;-30,43143619
0,49491;;;-33,78857467
0,49541;;;-36,84051875
0,49591;;;-36,84051875
0,49641;;;-33,17818586
0,49691;;;-29,82104737
0,49741;;;-29,21065856
0,49791;;;-28,60026974
0,49841;;;-26,76910329
0,49891;;;-24,63274244
0,49941;;;-21,88599277
0,49991;;;-17,91846547
0,50041;;;-13,64574376
0,50091;;;-11,81457732
0,50141;;;-11,2041885
0,50191;;;-7,847050016
0,50241;;;-0,8275786388
0,50291;;;6,497087146
0,50341;;;12,90616971
0,50391;;;20,23083549
0,50441;;;27,86069569
0,50491;;;32,4386118
0,50541;;;31,82822299
0,50591;;;28,77627891
0,50641;;;26,33472365
0,50691;;;24,80875161
0,50741;;;23,28277957
0,50791;;;21,75680753
0,50841;;;20,84122431
0,50891;;;19,31525227
0,50941;;;17,17889142
0,50991;;;14,12694734
0,51041;;;10,46461445
0,51091;;;8,023059185
0,51141;;;6,497087146
0,51191;;;1,919171031
0,51241;;;-6,931466793
0,51291;;;-15,78210462
0,51341;;;-16,39249343
0,51391;;;-12,73016054
0,51441;;;-17,00288225
0,51491;;;-31,95740822
0,51541;;;-44,16518453
0,51591;;;-42,33401809
0,51641;;;-33,78857467
0,51691;;;-31,65221382
0,51741;;;-34,70415789
0,51791;;;-33,48338026
0,51841;;;-28,29507533
0,51891;;;-25,24313125
0,51941;;;-24,63274244
0,51991;;;-21,27560395
0,52041;;;-15,47691021
0,52091;;;-13,34054935
0,52141;;;-13,95093817
0,52191;;;-10,28860528
0,52241;;;-1,437967454
0,52291;;;6,497087146
0,52341;;;11,68539208
0,52391;;;19,01005786
0,52441;;;28,4710845
0,52491;;;33,04900062
0,52541;;;31,21783417
0,52591;;;28,4710845
0,52641;;;28,16589009
0,52691;;;27,55550128
0,52741;;;25,11394602
0,52791;;;23,89316839
0,52841;;;24,80875161
0,52891;;;24,19836279
0,52941;;;19,62044668
0,52991;;;15,04253056
0,53041;;;12,90616971
0,53091;;;11,38019767
0,53141;;;8,633448
0,53191;;;5,276309515
0,53241;;;1,003587807
0,53291;;;-6,01588357
0,53341;;;-15,1717158
0,53391;;;-22,80157599
0,53440;;;-27,68468652
0,53490;;;-31,041825
0,53540;;;-32,56779704
0,53590;;;-31,34701941
0,53640;;;-27,68468652
0,53690;;;-25,85352007
0,53740;;;-25,54832566
0,53790;;;-24,32754803
0,53840;;;-21,58079836
0,53890;;;-19,1392431
0,53940;;;-17,30807665
0,53990;;;-13,95093817
0,54040;;;-10,28860528
0,54090;;;-9,067827647
0,54140;;;-8,457438831
0,54190;;;-4,184717123
0,54240;;;2,834754254
0,54290;;;10,15942004
0,54340;;;16,5685026
0,54390;;;24,80875161
0,54440;;;33,04900062
0,54490;;;36,71133351
0,54540;;;35,79575029
0,54590;;;33,96458384
0,54640;;;33,35419502
0,54690;;;31,52302858
0,54740;;;29,38666772
0,54790;;;28,77627891
0,54840;;;29,08147332
0,54890;;;25,72433483
0,54940;;;20,23083549
0,54990;;;17,17889142
0,55040;;;16,26330819
0,55090;;;14,12694734
0,55140;;;9,549031223
0,55190;;;6,191892738
0,55240;;;2,529559846
0,55290;;;-4,184717123
0,55340;;;-14,25613258
0,55390;;;-20,97040955
0,55440;;;-24,32754803
0,55490;;;-27,37949211
0,55540;;;-30,43143619
0,55590;;;-29,21065856
0,55640;;;-24,63274244
0,55690;;;-21,58079836
0,55740;;;-22,19118718
0,55790;;;-22,19118718
0,55840;;;-19,74963192
0,55890;;;-17,61327106
0,55940;;;-15,78210462
0,55990;;;-12,11977172
0,56040;;;-7,236661201
0,56090;;;-4,795105939
0,56140;;;-4,489911531
0,56190;;;-1,132773046
0,56240;;;6,497087146
0,56290;;;15,04253056
0,56340;;;21,75680753
0,56390;;;28,77627891
0,56440;;;37,01652792
0,56490;;;41,89963844
0,56540;;;41,28924962
0,56590;;;37,93211114
0,56640;;;35,79575029
0,56690;;;35,18536147
0,56740;;;33,96458384
0,56790;;;32,4386118
0,56840;;;30,91263976
0,56890;;;28,16589009
0,56940;;;24,19836279
0,56990;;;20,5360299
0,57040;;;18,39966905
0,57090;;;16,5685026
0,57140;;;13,51655852
0,57190;;;9,243836815
0,57240;;;4,055531884
0,57290;;;-2,353550677
0,57340;;;-11,2041885
0,57390;;;-20,66521514
0,57440;;;-27,0742977
0,57490;;;-28,60026974
0,57540;;;-27,37949211
0,57590;;;-27,68468652
0,57640;;;-28,60026974
0,57690;;;-24,02235362
0,57740;;;-12,73016054
0,57790;;;-5,100300347
0,57840;;;-9,678216462
0,57890;;;-20,66521514
0,57940;;;-23,1067704
0,57990;;;-15,1717158
0,58040;;;-7,847050016
0,58090;;;-8,762633239
0,58140;;;-10,89899409
0,58190;;;-5,405494754
0,58240;;;3,445143069
0,58290;;;9,243836815
0,58340;;;13,82175293
0,58390;;;21,45161312
0,58440;;;29,69186213
0,58490;;;32,74380621
0,58540;;;30,91263976
0,58590;;;28,77627891
0,58640;;;28,16589009
0,58690;;;26,02952924
0,58740;;;22,67239075
0,58790;;;21,14641872
0,58840;;;21,14641872
0,58890;;;18,39966905
0,58940;;;13,51655852
0,58990;;;10,46461445
0,59040;;;8,633448
0,59089;;;5,276309515
0,59139;;;0,393198992
0,59189;;;-2,353550677
0,59239;;;-6,01588357
0,59289;;;-13,64574376
0,59339;;;-24,63274244
0,59389;;;-32,56779704
0,59439;;;-36,53532434
0,59489;;;-39,28207401
0,59539;;;-41,11324046
0,59589;;;-39,58726842
0,59639;;;-35,0093523
0,59689;;;-31,65221382
0,59739;;;-31,34701941
0,59789;;;-31,041825
0,59839;;;-28,60026974
0,59889;;;-25,54832566
0,59939;;;-23,1067704
0,59989;;;-19,44443751
0,60039;;;-15,1717158
0,60089;;;-12,73016054
0,60139;;;-11,2041885
0,60189;;;-7,236661201
0,60239;;;-0,8275786388
0,60289;;;5,581503923
0,60339;;;12,29578089
0,60389;;;20,5360299
0,60439;;;29,08147332
0,60489;;;33,65938943
0,60539;;;33,35419502
0,60589;;;32,13341739
0,60639;;;31,21783417
0,60689;;;29,08147332
0,60739;;;26,33472365
0,60789;;;25,41914042
0,60839;;;25,11394602
0,60889;;;22,67239075
0,60939;;;17,78928023
0,60989;;;14,12694734
0,61039;;;12,29578089
0,61089;;;9,854225631
0,61139;;;6,497087146
0,61189;;;3,445143069
0,61239;;;-0,8275786388
0,61289;;;-8,762633239
0,61339;;;-17,91846547
0,61389;;;-24,93793685
0,61439;;;-28,90546415
0,61489;;;-32,26260263
0,61539;;;-34,09376908
0,61589;;;-31,95740822
0,61639;;;-28,29507533
0,61689;;;-27,68468652
0,61739;;;-28,29507533
0,61789;;;-26,46390889
0,61839;;;-22,49638159
0,61889;;;-20,66521514
0,61939;;;-19,1392431
0,61989;;;-15,1717158
0,62039;;;-10,59379969
0,62089;;;-9,373022054
0,62139;;;-9,678216462
0,62189;;;-5,100300347
0,62239;;;2,834754254
0,62289;;;9,549031223
0,62339;;;14,43214175
0,62389;;;22,36719635
0,62439;;;31,21783417
0,62489;;;34,88016706
0,62539;;;33,04900062
0,62589;;;31,21783417
0,62639;;;30,91263976
0,62689;;;29,38666772
0,62739;;;26,33472365
0,62789;;;25,72433483
0,62839;;;26,33472365
0,62889;;;24,5035572
0,62939;;;18,70486345
0,62989;;;14,12694734
0,63039;;;11,99058648
0,63089;;;9,549031223
0,63139;;;6,191892738
0,63189;;;2,834754254
0,63239;;;-1,743161862
0,63289;;;-9,373022054
0,63339;;;-18,52885429
0,63389;;;-25,54832566
0,63439;;;-30,73663059
0,63489;;;-34,39896349
0,63539;;;-35,31454671
0,63589;;;-32,56779704
0,63639;;;-29,82104737
0,63689;;;-29,82104737
0,63739;;;-29,51585296
0,63789;;;-27,0742977
0,63839;;;-24,93793685
0,63889;;;-23,71715922
0,63939;;;-20,05482632
0,63989;;;-13,95093817
0,64039;;;-12,11977172
0,64089;;;-15,1717158
0,64139;;;-11,2041885
0,64189;;;3,750337477
0,64239;;;17,17889142
0,64289;;;16,5685026
0,64339;;;10,46461445
0,64389;;;14,43214175
0,64439;;;26,33472365
0,64489;;;32,13341739
0,64539;;;28,77627891
0,64589;;;25,72433483
0,64639;;;26,63991805
0,64688;;;25,41914042
0,64738;;;21,75680753
0,64788;;;21,14641872
0,64838;;;22,97758516
0,64888;;;21,14641872
0,64938;;;15,65291938
0,64988;;;11,68539208
0,65038;;;9,854225631
0,65088;;;6,802281554
0,65138;;;1,919171031
0,65188;;;-0,8275786388
0,65238;;;-4,489911531
0,65288;;;-13,03535495
0,65338;;;-24,32754803
0,65388;;;-31,95740822
0,65438;;;-35,0093523
0,65488;;;-38,06129638
0,65538;;;-40,19765723
0,65588;;;-38,36649079
0,65638;;;-33,78857467
0,65688;;;-31,95740822
0,65738;;;-32,87299145
0,65788;;;-31,34701941
0,65838;;;-27,68468652
0,65888;;;-24,63274244
0,65938;;;-22,49638159
0,65988;;;-17,61327106
0,66038;;;-12,11977172
0,66088;;;-10,28860528
0,66138;;;-10,59379969
0,66188;;;-6,321077977
0,66238;;;1,613976623
0,66288;;;9,243836815
0,66338;;;15,65291938
0,66388;;;23,89316839
0,66438;;;32,74380621
0,66488;;;37,01652792
0,66538;;;35,18536147
0,66588;;;32,74380621
0,66638;;;32,13341739
0,66688;;;31,21783417
0,66738;;;29,38666772
0,66788;;;28,4710845
0,66838;;;28,4710845
0,66888;;;26,02952924
0,66938;;;20,5360299
0,66988;;;16,5685026
0,67038;;;15,34772497
0,67088;;;14,12694734
0,67138;;;10,46461445
0,67188;;;6,497087146
0,67238;;;1,613976623
0,67288;;;-6,01588357
0,67338;;;-16,08729902
0,67388;;;-24,32754803
0,67438;;;-28,60026974
0,67488;;;-31,041825
0,67538;;;-31,95740822
0,67588;;;-29,82104737
0,67638;;;-26,76910329
0,67688;;;-25,24313125
0,67738;;;-25,24313125
0,67788;;;-24,32754803
0,67838;;;-21,88599277
0,67888;;;-19,74963192
0,67938;;;-17,30807665
0,67988;;;-13,03535495
0,68038;;;-9,678216462
0,68088;;;-9,067827647
0,68138;;;-8,762633239
0,68188;;;-3,879522716
0,68238;;;3,750337477
0,68288;;;10,46461445
0,68338;;;16,5685026
0,68388;;;24,19836279
0,68438;;;32,13341739
0,68488;;;35,49055588
0,68538;;;33,35419502
0,68588;;;30,91263976
0,68638;;;29,69186213
0,68688;;;27,86069569
0,68738;;;25,11394602
0,68788;;;24,19836279
0,68838;;;24,5035572
0,68888;;;22,67239075
0,68938;;;17,78928023
0,68988;;;13,82175293
0,69038;;;11,99058648
0,69088;;;10,15942004
0,69138;;;7,107475961
0,69188;;;3,139948661
0,69238;;;-2,04835627
0,69288;;;-9,678216462
0,69338;;;-18,52885429
0,69388;;;-26,15871448
0,69438;;;-31,041825
0,69488;;;-34,09376908
0,69538;;;-35,0093523
0,69588;;;-33,17818586
0,69638;;;-30,43143619
0,69688;;;-28,60026974
0,69738;;;-27,98988092
0,69788;;;-27,0742977
0,69838;;;-25,54832566
0,69888;;;-23,41196481
0,69938;;;-19,74963192
0,69988;;;-15,1717158
0,70038;;;-12,42496613
0,70088;;;-11,2041885
0,70138;;;-9,373022054
0,70188;;;-4,795105939
0,70238;;;1,308782215
0,70288;;;8,938642408
0,70337;;;17,17889142
0,70387;;;23,89316839
0,70437;;;28,16589009
0,70487;;;33,65938943
0,70537;;;41,89963844
0,70587;;;47,39313778
0,70637;;;41,89963844
0,70687;;;28,4710845
0,70737;;;20,5360299
0,70787;;;22,67239075
0,70837;;;25,41914042
0,70887;;;21,75680753
0,70937;;;15,65291938
0,70987;;;13,51655852
0,71037;;;13,82175293
0,71087;;;11,68539208
0,71137;;;8,938642408
0,71187;;;6,497087146
0,71237;;;1,919171031
0,71287;;;-6,626272385
0,71337;;;-15,47691021
0,71387;;;-20,05482632
0,71437;;;-22,80157599
0,71487;;;-26,46390889
0,71537;;;-28,29507533
0,71587;;;-25,54832566
0,71637;;;-21,88599277
0,71687;;;-21,58079836
0,71737;;;-21,88599277
0,71787;;;-19,74963192
0,71837;;;-17,00288225
0,71887;;;-16,08729902
0,71937;;;-14,25613258
0,71987;;;-9,373022054
0,72037;;;-5,100300347
0,72087;;;-4,795105939
0,72137;;;-4,489911531
0,72187;;;0,393198992
0,72237;;;8,328253592
0,72287;;;15,65291938
0,72337;;;22,67239075
0,72387;;;31,52302858
0,72437;;;38,54249995
0,72487;;;40,3736664
0,72537;;;38,54249995
0,72587;;;37,62691673
0,72637;;;36,71133351
0,72687;;;33,35419502
0,72737;;;30,30225095
0,72787;;;29,99705654
0,72837;;;30,30225095
0,72887;;;26,63991805
0,72937;;;21,45161312
0,72987;;;18,70486345
0,73037;;;17,48408582
0,73087;;;14,43214175
0,73137;;;10,76980885
0,73187;;;7,412670369
0,73237;;;2,224365438
0,73287;;;-6,321077977
0,73337;;;-15,78210462
0,73387;;;-22,19118718
0,73437;;;-25,85352007
0,73487;;;-29,21065856
0,73537;;;-31,041825
0,73587;;;-28,60026974
0,73637;;;-25,54832566
0,73687;;;-24,93793685
0,73737;;;-25,54832566
0,73787;;;-24,02235362
0,73837;;;-22,19118718
0,73887;;;-20,97040955
0,73937;;;-18,83404869
0,73987;;;-13,34054935
0,74037;;;-9,067827647
0,74087;;;-9,067827647
0,74137;;;-9,373022054
0,74187;;;-4,795105939
0,74237;;;2,224365438
0,74287;;;8,328253592
0,74337;;;14,73733615
0,74387;;;22,97758516
0,74437;;;29,38666772
0,74487;;;30,60744535
0,74537;;;28,4710845
0,74587;;;27,25030687
0,74637;;;26,63991805
0,74687;;;23,89316839
0,74737;;;21,14641872
0,74787;;;22,06200194
0,74837;;;22,36719635
0,74887;;;18,09447464
0,74937;;;11,68539208
0,74987;;;9,243836815
0,75037;;;9,549031223
0,75087;;;7,717864777
0,75137;;;3,445143069
0,75187;;;0,08800458433
0,75237;;;-4,795105939
0,75287;;;-13,34054935
0,75337;;;-22,80157599
0,75387;;;-29,21065856
0,75437;;;-33,17818586
0,75487;;;-37,45090756
0,75537;;;-38,9768796
0,75587;;;-35,61974112
0,75637;;;-31,65221382
0,75687;;;-32,26260263
0,75737;;;-34,09376908
0,75787;;;-31,95740822
0,75837;;;-27,68468652
0,75887;;;-25,85352007
0,75936;;;-24,02235362
0,75986;;;-19,44443751
0,76036;;;-15,1717158
0,76086;;;-15,1717158
0,76136;;;-14,56132699
0,76186;;;-8,457438831
0,76236;;;0,08800458433
0,76286;;;5,581503923
0,76336;;;11,38019767
0,76386;;;21,75680753
0,76436;;;30,91263976
0,76486;;;31,82822299
0,76536;;;27,86069569
0,76586;;;26,94511246
0,76636;;;27,25030687
0,76686;;;23,89316839
0,76736;;;20,5360299
0,76786;;;22,67239075
0,76836;;;24,80875161
0,76886;;;18,09447464
0,76936;;;10,46461445
0,76986;;;14,73733615
0,77036;;;26,02952924
0,77086;;;26,33472365
0,77136;;;11,38019767
0,77186;;;-2,963939493
0,77236;;;-8,152244424
0,77286;;;-10,89899409
0,77336;;;-19,74963192
0,77386;;;-29,21065856
0,77436;;;-33,17818586
0,77486;;;-33,78857467
0,77536;;;-34,39896349
0,77586;;;-33,48338026
0,77636;;;-30,73663059
0,77686;;;-28,90546415
0,77736;;;-28,90546415
0,77786;;;-27,98988092
0,77836;;;-24,93793685
0,77886;;;-22,19118718
0,77936;;;-20,05482632
0,77986;;;-16,08729902
0,78036;;;-11,81457732
0,78086;;;-10,59379969
0,78136;;;-10,59379969
0,78186;;;-6,626272385
0,78236;;;1,613976623
0,78286;;;9,243836815
0,78336;;;15,04253056
0,78386;;;21,75680753
0,78436;;;28,77627891
0,78486;;;31,52302858
0,78536;;;29,69186213
0,78586;;;26,94511246
0,78636;;;26,33472365
0,78686;;;25,72433483
0,78736;;;24,19836279
0,78786;;;23,58797398
0,78836;;;23,28277957
0,78886;;;20,84122431
0,78936;;;16,87369701
0,78986;;;13,51655852
0,79036;;;11,99058648
0,79086;;;10,15942004
0,79136;;;8,023059185
0,79186;;;5,886698331
0,79236;;;1,613976623
0,79286;;;-6,01588357
0,79336;;;-14,25613258
0,79386;;;-19,74963192
0,79436;;;-23,41196481
0,79486;;;-27,0742977
0,79536;;;-28,90546415
0,79586;;;-26,76910329
0,79636;;;-24,02235362
0,79686;;;-24,02235362
0,79736;;;-25,24313125
0,79786;;;-24,63274244
0,79836;;;-22,49638159
0,79886;;;-20,66521514
0,79936;;;-18,22365988
0,79986;;;-13,95093817
0,80036;;;-10,28860528
0,80086;;;-10,28860528
0,80136;;;-10,89899409
0,80186;;;-6,931466793
0,80236;;;0,08800458433
0,80286;;;6,191892738
0,80336;;;11,99058648
0,80386;;;19,31525227
0,80436;;;26,02952924
0,80486;;;28,4710845
0,80536;;;27,55550128
0,80586;;;26,63991805
0,80636;;;26,02952924
0,80686;;;24,19836279
0,80736;;;22,97758516
0,80786;;;22,97758516
0,80836;;;22,67239075
0,80886;;;19,01005786
0,80936;;;14,12694734
0,80986;;;11,38019767
0,81036;;;10,46461445
0,81086;;;8,633448
0,81136;;;6,191892738
0,81186;;;3,445143069
0,81236;;;-0,2171898234
0,81286;;;-7,541855608
0,81336;;;-15,78210462
0,81386;;;-21,58079836
0,81436;;;-25,54832566
0,81486;;;-28,90546415
0,81536;;;-29,82104737
0,81585;;;-27,0742977
0,81635;;;-24,93793685
0,81685;;;-26,15871448
0,81735;;;-27,37949211
0,81785;;;-24,63274244
0,81835;;;-20,36002073
0,81885;;;-18,83404869
0,81935;;;-17,61327106
0,81985;;;-13,34054935
0,82035;;;-9,373022054
0,82085;;;-9,067827647
0,82135;;;-9,678216462
0,82185;;;-6,01588357
0,82235;;;1,308782215
0,82285;;;7,717864777
0,82335;;;13,21136412
0,82385;;;20,5360299
0,82435;;;27,55550128
0,82485;;;29,38666772
0,82535;;;27,25030687
0,82585;;;26,63991805
0,82635;;;27,55550128
0,82685;;;26,02952924
0,82735;;;24,19836279
0,82785;;;24,80875161
0,82835;;;26,33472365
0,82885;;;23,28277957
0,82935;;;17,17889142
0,82985;;;14,43214175
0,83035;;;15,04253056
0,83085;;;12,90616971
0,83135;;;8,023059185
0,83185;;;4,360726292
0,83235;;;1,613976623
0,83285;;;-5,710689162
0,83335;;;-16,39249343
0,83385;;;-22,80157599
0,83435;;;-24,02235362
0,83485;;;-26,46390889
0,83535;;;-31,65221382
0,83585;;;-30,43143619
0,83635;;;-18,52885429
0,83685;;;-6,931466793
0,83735;;;-7,847050016
0,83785;;;-18,52885429
0,83835;;;-26,76910329
0,83885;;;-26,15871448
0,83935;;;-20,05482632
0,83985;;;-14,25613258
0,84035;;;-11,50938291
0,84085;;;-10,89899409
0,84135;;;-10,89899409
0,84185;;;-8,152244424
0,84235;;;-2,353550677
0,84285;;;4,055531884
0,84335;;;11,07500326
0,84385;;;19,01005786
0,84435;;;26,02952924
0,84485;;;28,4710845
0,84535;;;26,94511246
0,84585;;;25,11394602
0,84635;;;24,19836279
0,84685;;;23,28277957
0,84735;;;21,75680753
0,84785;;;21,14641872
0,84835;;;21,14641872
0,84885;;;19,31525227
0,84935;;;15,65291938
0,84985;;;13,21136412
0,85035;;;11,99058648
0,85085;;;10,46461445
0,85135;;;8,633448
0,85185;;;6,497087146
0,85235;;;2,529559846
0,85285;;;-4,795105939
0,85335;;;-13,95093817
0,85385;;;-20,66521514
0,85435;;;-24,32754803
0,85485;;;-26,76910329
0,85535;;;-27,37949211
0,85585;;;-24,93793685
0,85635;;;-21,88599277
0,85685;;;-20,97040955
0,85735;;;-20,97040955
0,85785;;;-20,05482632
0,85835;;;-18,22365988
0,85885;;;-17,00288225
0,85935;;;-14,56132699
0,85985;;;-9,98341087
0,86035;;;-6,321077977
0,86085;;;-6,01588357
0,86135;;;-6,01588357
0,86185;;;-1,743161862
0,86235;;;4,6659207
0,86285;;;10,15942004
0,86335;;;15,65291938
0,86385;;;23,89316839
0,86435;;;32,13341739
0,86485;;;33,96458384
0,86535;;;31,21783417
0,86585;;;29,38666772
0,86635;;;29,38666772
0,86685;;;28,4710845
0,86735;;;26,02952924
0,86785;;;25,72433483
0,86835;;;26,63991805
0,86885;;;24,19836279
0,86935;;;18,70486345
0,86985;;;15,65291938
0,87035;;;15,04253056
0,87085;;;13,21136412
0,87135;;;8,633448
0,87184;;;5,886698331
0,87234;;;5,581503923
0,87284;;;2,529559846
0,87334;;;-6,321077977
0,87384;;;-16,08729902
0,87434;;;-21,27560395
0,87484;;;-24,02235362
0,87534;;;-26,76910329
0,87584;;;-28,60026974
0,87634;;;-27,68468652
0,87684;;;-25,85352007
0,87734;;;-24,32754803
0,87784;;;-22,19118718
0,87834;;;-19,44443751
0,87884;;;-18,83404869
0,87934;;;-20,05482632
0,87984;;;-17,61327106
0,88034;;;-11,2041885
0,88084;;;-7,541855608
0,88134;;;-9,373022054
0,88184;;;-9,98341087
0,88234;;;-4,489911531
0,88284;;;3,750337477
0,88334;;;9,854225631
0,88384;;;15,34772497
0,88434;;;23,89316839
0,88484;;;31,52302858
0,88534;;;32,4386118
0,88584;;;28,77627891
0,88634;;;26,94511246
0,88684;;;26,63991805
0,88734;;;24,80875161
0,88784;;;22,97758516
0,88834;;;23,58797398
0,88884;;;23,58797398
0,88934;;;19,31525227
0,88984;;;14,12694734
0,89034;;;11,99058648
0,89084;;;10,76980885
0,89134;;;7,717864777
0,89184;;;4,360726292
0,89234;;;2,834754254
0,89284;;;-2,04835627
0,89334;;;-12,73016054
0,89384;;;-23,1067704
0,89434;;;-27,37949211
0,89484;;;-30,43143619
0,89534;;;-36,23012993
0,89584;;;-38,06129638
0,89634;;;-32,26260263
0,89684;;;-28,29507533
0,89734;;;-32,87299145
0,89784;;;-35,31454671
0,89834;;;-24,32754803
0,89884;;;-9,678216462
0,89934;;;-8,762633239
0,89984;;;-19,1392431
0,90034;;;-23,41196481
0,90084;;;-17,61327106
0,90134;;;-13,34054935
0,90184;;;-14,56132699
0,90234;;;-12,73016054
0,90284;;;-3,879522716
0,90334;;;4,6659207
0,90384;;;11,38019767
0,90434;;;19,62044668
0,90484;;;28,77627891
0,90534;;;30,91263976
0,90584;;;26,63991805
0,90634;;;23,58797398
0,90684;;;24,5035572
0,90734;;;24,19836279
0,90784;;;21,75680753
0,90834;;;21,75680753
0,90884;;;23,89316839
0,90934;;;22,06200194
0,90984;;;15,95811378
0,91034;;;11,38019767
0,91084;;;10,46461445
0,91134;;;8,938642408
0,91184;;;5,276309515
0,91234;;;0,6983933997
0,91284;;;-4,795105939
0,91334;;;-13,03535495
0,91384;;;-22,49638159
0,91434;;;-28,29507533
0,91484;;;-31,041825
0,91534;;;-33,48338026
0,91584;;;-34,70415789
0,91634;;;-32,26260263
0,91684;;;-28,60026974
0,91734;;;-27,98988092
0,91784;;;-28,60026974
0,91834;;;-27,0742977
0,91884;;;-23,71715922
0,91934;;;-21,58079836
0,91984;;;-19,1392431
0,92034;;;-14,56132699
0,92084;;;-11,2041885
0,92134;;;-11,2041885
0,92184;;;-10,59379969
0,92234;;;-5,100300347
0,92284;;;2,834754254
0,92334;;;8,938642408
0,92384;;;15,04253056
0,92434;;;23,89316839
0,92484;;;31,82822299
0,92534;;;33,65938943
0,92584;;;31,82822299
0,92634;;;30,60744535
0,92684;;;29,69186213
0,92734;;;26,94511246
0,92784;;;25,11394602
0,92833;;;25,72433483
0,92883;;;25,41914042
0,92933;;;20,84122431
0,92983;;;15,95811378
0,93033;;;14,73733615
0,93083;;;14,43214175
0,93133;;;11,68539208
0,93183;;;8,328253592
0,93233;;;6,802281554
0,93283;;;3,139948661
0,93333;;;-5,710689162
0,93383;;;-17,00288225
0,93433;;;-23,71715922
0,93483;;;-26,76910329
0,93533;;;-29,82104737
0,93583;;;-31,041825
0,93633;;;-28,60026974
0,93683;;;-25,85352007
0,93733;;;-26,15871448
0,93783;;;-27,0742977
0,93833;;;-24,32754803
0,93883;;;-20,97040955
0,93933;;;-20,05482632
0,93983;;;-18,22365988
0,94033;;;-11,81457732
0,94083;;;-6,01588357
0,94133;;;-6,01588357
0,94183;;;-6,931466793
0,94233;;;-2,353550677
0,94283;;;5,886698331
0,94333;;;13,21136412
0,94383;;;20,23083549
0,94433;;;30,30225095
0,94483;;;38,84769436
0,94533;;;40,06847199
0,94583;;;35,79575029
0,94633;;;33,04900062
0,94683;;;32,13341739
0,94733;;;30,60744535
0,94783;;;28,16589009
0,94833;;;27,55550128
0,94883;;;27,25030687
0,94933;;;24,19836279
0,94983;;;19,92564108
0,95033;;;17,48408582
0,95083;;;15,65291938
0,95133;;;13,51655852
0,95183;;;11,38019767
0,95233;;;8,633448
0,95283;;;2,224365438
0,95333;;;-6,01588357
0,95383;;;-13,03535495
0,95433;;;-17,61327106
0,95483;;;-22,80157599
0,95533;;;-27,0742977
0,95583;;;-26,15871448
0,95633;;;-22,49638159
0,95683;;;-22,19118718
0,95733;;;-24,93793685
0,95783;;;-24,63274244
0,95833;;;-20,97040955
0,95883;;;-20,36002073
0,95933;;;-21,27560395
0,95983;;;-16,69768784
0,96033;;;-9,067827647
0,96083;;;-8,457438831
0,96133;;;-12,42496613
0,96183;;;-6,321077977
0,96233;;;10,46461445
0,96283;;;20,84122431
0,96333;;;16,26330819
0,96383;;;10,76980885
0,96433;;;17,48408582
0,96483;;;27,86069569
0,96533;;;29,08147332
0,96583;;;24,5035572
0,96633;;;23,58797398
0,96683;;;24,5035572
0,96733;;;22,36719635
0,96783;;;19,62044668
0,96833;;;21,45161312
0,96883;;;23,28277957
0,96933;;;19,31525227
0,96983;;;13,21136412
0,97033;;;11,07500326
0,97083;;;10,76980885
0,97133;;;8,328253592
0,97183;;;4,971115108
0,97233;;;2,834754254
0,97283;;;-1,132773046
0,97333;;;-9,678216462
0,97383;;;-18,22365988
0,97433;;;-22,80157599
0,97483;;;-26,15871448
0,97533;;;-30,73663059
0,97583;;;-32,26260263
0,97633;;;-28,60026974
0,97683;;;-24,63274244
0,97733;;;-24,93793685
0,97783;;;-25,85352007
0,97833;;;-23,41196481
0,97883;;;-20,66521514
0,97933;;;-20,05482632
0,97983;;;-17,91846547
0,98033;;;-13,03535495
0,98083;;;-9,98341087
0,98133;;;-11,50938291
0,98183;;;-11,81457732
0,98233;;;-6,626272385
0,98283;;;0,08800458433
0,98333;;;4,971115108
0,98383;;;10,76980885
0,98432;;;20,23083549
0,98482;;;27,86069569
0,98532;;;28,4710845
0,98582;;;25,41914042
0,98632;;;24,19836279
0,98682;;;23,89316839
0,98732;;;21,75680753
0,98782;;;19,62044668
0,98832;;;20,23083549
0,98882;;;20,5360299
0,98932;;;17,48408582
0,98982;;;13,21136412
0,99032;;;11,68539208
0,99082;;;10,76980885
0,99132;;;8,328253592
0,99182;;;5,276309515
0,99232;;;2,834754254
0,99282;;;-1,743161862
0,99332;;;-10,59379969
0,99382;;;-18,52885429
0,99432;;;-23,1067704
0,99482;;;-26,46390889
0,99532;;;-31,041825
0,99582;;;-32,56779704
0,99632;;;-29,21065856
0,99682;;;-25,24313125
0,99732;;;-25,24313125
0,99782;;;-26,15871448
0,99832;;;-24,63274244
0,99882;;;-22,19118718
0,99932;;;-20,97040955
0,99982;;;-18,83404869
1,00032;;;-13,95093817
1,00082;;;-10,28860528
1,00132;;;-10,59379969
1,00182;;;-10,89899409
1,00232;;;-6,01588357
1,00282;;;1,003587807
1,00332;;;7,107475961
1,00382;;;12,6009753
1,00432;;;20,23083549
1,00482;;;27,25030687
1,00532;;;29,08147332
1,00582;;;26,94511246
1,00632;;;25,41914042
1,00682;;;24,80875161
1,00732;;;23,58797398
1,00782;;;22,97758516
1,00832;;;23,28277957
1,00882;;;22,36719635
1,00932;;;18,09447464
1,00982;;;13,82175293
1,01032;;;12,29578089
1,01082;;;11,99058648
1,01132;;;9,854225631
1,01182;;;7,107475961
1,01232;;;4,360726292
1,01282;;;-0,5223842311
1,01332;;;-9,067827647
1,01382;;;-17,30807665
1,01432;;;-22,49638159
1,01482;;;-25,54832566
1,01532;;;-28,90546415
1,01582;;;-29,82104737
1,01632;;;-27,0742977
1,01682;;;-24,93793685
1,01732;;;-26,46390889
1,01782;;;-27,0742977
1,01832;;;-23,41196481
1,01882;;;-19,74963192
1,01932;;;-19,1392431
1,01982;;;-18,52885429
1,02032;;;-13,64574376
1,02082;;;-9,067827647
1,02132;;;-9,067827647
1,02182;;;-9,373022054
1,02232;;;-4,184717123
1,02282;;;3,139948661
1,02332;;;8,633448
1,02382;;;14,43214175
1,02432;;;24,19836279
1,02482;;;32,13341739
1,02532;;;30,91263976
1,02582;;;26,33472365
1,02632;;;30,30225095
1,02682;;;40,98405522
1,02732;;;44,95158252
1,02782;;;36,4061391
1,02832;;;25,11394602
1,02882;;;20,84122431
1,02932;;;20,84122431
1,02982;;;19,01005786
1,03032;;;15,34772497
1,03082;;;13,21136412
1,03132;;;12,29578089
1,03182;;;10,46461445
1,03232;;;6,191892738
1,03282;;;0,08800458433
1,03332;;;-7,236661201
1,03382;;;-14,86652139
1,03432;;;-20,97040955
1,03482;;;-25,85352007
1,03532;;;-29,21065856
1,03582;;;-29,21065856
1,03632;;;-26,46390889
1,03682;;;-24,32754803
1,03732;;;-24,63274244
1,03782;;;-24,93793685
1,03832;;;-23,41196481
1,03882;;;-21,58079836
1,03932;;;-20,66521514
1,03982;;;-18,22365988
1,04032;;;-13,64574376
1,04081;;;-10,89899409
1,04131;;;-11,81457732
1,04181;;;-11,50938291
1,04231;;;-6,626272385
1,04281;;;0,393198992
1,04331;;;6,191892738
1,04381;;;13,21136412
1,04431;;;22,06200194
1,04481;;;29,38666772
1,04531;;;30,30225095
1,04581;;;27,86069569
1,04631;;;26,02952924
1,04681;;;25,11394602
1,04731;;;23,58797398
1,04781;;;22,97758516
1,04831;;;23,89316839
1,04881;;;23,28277957
1,04931;;;19,31525227
1,04981;;;15,34772497
1,05031;;;13,51655852
1,05081;;;11,38019767
1,05131;;;7,717864777
1,05181;;;4,360726292
1,05231;;;2,224365438
1,05281;;;-2,353550677
1,05331;;;-10,89899409
1,05381;;;-19,44443751
1,05431;;;-24,63274244
1,05481;;;-28,60026974
1,05531;;;-31,95740822
1,05581;;;-32,56779704
1,05631;;;-29,51585296
1,05681;;;-27,0742977
1,05731;;;-27,98988092
1,05781;;;-28,29507533
1,05831;;;-25,85352007
1,05881;;;-23,1067704
1,05931;;;-22,19118718
1,05981;;;-19,74963192
1,06031;;;-14,56132699
1,06081;;;-11,2041885
1,06131;;;-11,50938291
1,06181;;;-11,2041885
1,06231;;;-6,626272385
1,06281;;;0,08800458433
1,06331;;;5,886698331
1,06381;;;12,90616971
1,06431;;;21,45161312
1,06481;;;26,94511246
1,06531;;;26,94511246
1,06581;;;24,80875161
1,06631;;;24,19836279
1,06681;;;23,89316839
1,06731;;;22,36719635
1,06781;;;21,45161312
1,06831;;;22,06200194
1,06881;;;20,5360299
1,06931;;;16,26330819
1,06981;;;12,6009753
1,07031;;;11,68539208
1,07081;;;10,46461445
1,07131;;;7,107475961
1,07181;;;4,6659207
1,07231;;;3,139948661
1,07281;;;-1,743161862
1,07331;;;-11,50938291
1,07381;;;-20,05482632
1,07431;;;-24,32754803
1,07481;;;-27,37949211
1,07531;;;-31,041825
1,07581;;;-31,95740822
1,07631;;;-28,60026974
1,07681;;;-25,85352007
1,07731;;;-27,0742977
1,07781;;;-28,29507533
1,07831;;;-26,15871448
1,07881;;;-23,41196481
1,07931;;;-22,19118718
1,07981;;;-20,36002073
1,08031;;;-15,78210462
1,08081;;;-12,42496613
1,08131;;;-13,34054935
1,08181;;;-13,64574376
1,08231;;;-9,067827647
1,08281;;;-1,437967454
1,08331;;;3,750337477
1,08381;;;9,854225631
1,08431;;;18,70486345
1,08481;;;26,63991805
1,08531;;;28,16589009
1,08581;;;25,11394602
1,08631;;;23,58797398
1,08681;;;24,5035572
1,08731;;;23,89316839
1,08781;;;22,06200194
1,08831;;;22,36719635
1,08881;;;22,67239075
1,08931;;;19,62044668
1,08981;;;15,04253056
1,09031;;;12,90616971
1,09081;;;13,21136412
1,09131;;;11,07500326
1,09181;;;7,107475961
1,09231;;;4,6659207
1,09281;;;1,919171031
1,09331;;;-6,626272385
1,09381;;;-19,1392431
1,09431;;;-24,63274244
1,09481;;;-19,1392431
1,09531;;;-12,42496613
1,09581;;;-14,56132699
1,09631;;;-24,02235362
1,09680;;;-30,12624178
1,09730;;;-28,90546415
1,09780;;;-25,24313125
1,09830;;;-24,02235362
1,09880;;;-24,02235362
1,09930;;;-21,58079836
1,09980;;;-17,30807665
1,10030;;;-13,64574376
1,10080;;;-13,03535495
1,10130;;;-13,03535495
1,10180;;;-10,59379969
1,10230;;;-5,100300347
1,10280;;;1,308782215
1,10330;;;7,412670369
1,10380;;;13,82175293
1,10430;;;20,84122431
1,10480;;;26,33472365
1,10530;;;28,4710845
1,10580;;;27,86069569
1,10630;;;26,33472365
1,10680;;;25,41914042
1,10730;;;24,5035572
1,10780;;;24,19836279
1,10830;;;23,89316839
1,10880;;;22,67239075
1,10930;;;20,5360299
1,10980;;;17,78928023
1,11030;;;15,04253056
1,11080;;;12,6009753
1,11130;;;11,07500326
1,11180;;;9,549031223
1,11230;;;5,886698331
1,11280;;;-0,8275786388
1,11330;;;-9,373022054
1,11380;;;-16,08729902
1,11430;;;-20,36002073
1,11480;;;-24,32754803
1,11530;;;-27,0742977
1,11580;;;-26,76910329
1,11630;;;-24,63274244
1,11680;;;-23,41196481
1,11730;;;-23,41196481
1,11780;;;-22,49638159
1,11830;;;-20,05482632
1,11880;;;-18,22365988
1,11930;;;-16,69768784
1,11980;;;-13,03535495
1,12030;;;-8,457438831
1,12080;;;-6,931466793
1,12130;;;-7,847050016
1,12180;;;-6,321077977
1,12230;;;-0,2171898234
1,12280;;;7,107475961
1,12330;;;13,21136412
1,12380;;;19,01005786
1,12430;;;26,02952924
1,12480;;;32,13341739
1,12530;;;34,26977825
1,12580;;;33,65938943
1,12630;;;32,4386118
1,12680;;;31,52302858
1,12730;;;30,91263976
1,12780;;;30,91263976
1,12830;;;30,60744535
1,12880;;;29,08147332
1,12930;;;26,63991805
1,12980;;;24,5035572
1,13030;;;21,75680753
1,13080;;;18,39966905
1,13130;;;16,26330819
1,13180;;;15,04253056
1,13230;;;12,29578089
1,13280;;;4,6659207
1,13330;;;-4,184717123
1,13380;;;-11,2041885
1,13430;;;-16,08729902
1,13480;;;-21,27560395
1,13530;;;-24,32754803
1,13580;;;-22,80157599
1,13630;;;-19,74963192
1,13680;;;-19,44443751
1,13730;;;-20,97040955
1,13780;;;-19,44443751
1,13830;;;-16,39249343
1,13880;;;-15,47691021
1,13930;;;-15,1717158
1,13980;;;-11,50938291
1,14030;;;-6,01588357
1,14080;;;-4,489911531
1,14130;;;-6,01588357
1,14180;;;-4,489911531
1,14230;;;1,308782215
1,14280;;;7,107475961
1,14330;;;12,6009753
1,14380;;;19,92564108
1,14430;;;27,86069569
1,14480;;;31,82822299
1,14530;;;31,52302858
1,14580;;;30,91263976
1,14630;;;30,30225095
1,14680;;;28,4710845
1,14730;;;26,33472365
1,14780;;;26,33472365
1,14830;;;26,33472365
1,14880;;;23,89316839
1,14930;;;20,5360299
1,14980;;;19,01005786
1,15030;;;17,17889142
1,15080;;;12,90616971
1,15130;;;10,46461445
1,15180;;;11,07500326
1,15230;;;8,023059185
1,15280;;;-2,353550677
1,15329;;;-11,2041885
1,15379;;;-9,373022054
1,15429;;;-5,710689162
1,15479;;;-14,25613258
1,15529;;;-29,21065856
1,15579;;;-34,70415789
1,15629;;;-28,90546415
1,15679;;;-24,63274244
1,15729;;;-27,0742977
1,15779;;;-27,98988092
1,15829;;;-23,71715922
1,15879;;;-20,66521514
1,15929;;;-20,97040955
1,15979;;;-18,52885429
1,16029;;;-12,42496613
1,16079;;;-9,678216462
1,16129;;;-11,81457732
1,16179;;;-10,59379969
1,16229;;;-2,963939493
1,16279;;;4,971115108
1,16329;;;9,549031223
1,16379;;;15,04253056
1,16429;;;23,28277957
1,16479;;;28,77627891
1,16529;;;28,4710845
1,16579;;;26,63991805
1,16629;;;26,33472365
1,16679;;;25,41914042
1,16729;;;22,67239075
1,16779;;;21,45161312
1,16829;;;22,36719635
1,16879;;;21,14641872
1,16929;;;16,26330819
1,16979;;;12,29578089
1,17029;;;10,76980885
1,17079;;;9,854225631
1,17129;;;8,023059185
1,17179;;;5,886698331
1,17229;;;1,919171031
1,17279;;;-5,405494754
1,17329;;;-15,1717158
1,17379;;;-22,49638159
1,17429;;;-27,0742977
1,17479;;;-32,26260263
1,17529;;;-36,23012993
1,17579;;;-35,0093523
1,17629;;;-30,12624178
1,17679;;;-28,60026974
1,17729;;;-30,43143619
1,17779;;;-30,43143619
1,17829;;;-26,76910329
1,17879;;;-24,02235362
1,17929;;;-22,49638159
1,17979;;;-18,52885429
1,18029;;;-13,03535495
1,18079;;;-10,59379969
1,18129;;;-12,42496613
1,18179;;;-11,2041885
1,18229;;;-4,184717123
1,18279;;;3,750337477
1,18329;;;9,854225631
1,18379;;;17,17889142
1,18429;;;26,02952924
1,18479;;;31,52302858
1,18529;;;31,21783417
1,18579;;;28,16589009
1,18629;;;26,94511246
1,18679;;;26,33472365
1,18729;;;24,80875161
1,18779;;;23,28277957
1,18829;;;22,67239075
1,18879;;;20,84122431
1,18929;;;17,48408582
1,18979;;;13,51655852
1,19029;;;10,76980885
1,19079;;;8,328253592
1,19129;;;5,581503923
1,19179;;;3,445143069
1,19229;;;0,08800458433
1,19279;;;-7,541855608
1,19329;;;-17,61327106
1,19379;;;-25,85352007
1,19429;;;-30,73663059
1,19479;;;-35,0093523
1,19529;;;-38,06129638
1,19579;;;-37,14571316
1,19629;;;-33,78857467
1,19679;;;-32,26260263
1,19729;;;-33,17818586
1,19779;;;-32,56779704
1,19829;;;-30,12624178
1,19879;;;-27,68468652
1,19929;;;-25,85352007
1,19979;;;-21,88599277
1,20029;;;-17,30807665
1,20079;;;-16,08729902
1,20129;;;-16,69768784
1,20179;;;-13,95093817
1,20229;;;-6,321077977
1,20279;;;1,003587807
1,20329;;;7,107475961
1,20379;;;14,73733615
1,20429;;;23,28277957
1,20479;;;28,77627891
1,20529;;;28,77627891
1,20579;;;26,63991805
1,20629;;;26,02952924
1,20679;;;24,5035572
1,20729;;;21,75680753
1,20779;;;20,5360299
1,20829;;;20,84122431
1,20879;;;19,01005786
1,20928;;;14,43214175
1,20978;;;11,07500326
1,21028;;;10,15942004
1,21078;;;8,633448
1,21128;;;5,276309515
1,21178;;;2,529559846
1,21228;;;0,393198992
1,21278;;;-5,405494754
1,21328;;;-15,47691021
1,21378;;;-24,32754803
1,21428;;;-29,21065856
1,21478;;;-33,17818586
1,21528;;;-36,84051875
1,21578;;;-36,53532434
1,21628;;;-31,95740822
1,21678;;;-29,82104737
1,21728;;;-31,65221382
1,21778;;;-31,041825
1,21828;;;-25,54832566
1,21878;;;-21,88599277
1,21928;;;-24,02235362
1,21978;;;-23,1067704
1,22028;;;-11,81457732
1,22078;;;1,308782215
1,22128;;;3,139948661
1,22178;;;-4,489911531
1,22228;;;-8,762633239
1,22278;;;-2,04835627
1,22328;;;9,243836815
1,22378;;;18,39966905
1,22428;;;23,89316839
1,22478;;;27,86069569
1,22528;;;30,30225095
1,22578;;;30,30225095
1,22628;;;29,38666772
1,22678;;;28,4710845
1,22728;;;27,55550128
1,22778;;;26,33472365
1,22828;;;24,80875161
1,22878;;;22,97758516
1,22928;;;20,23083549
1,22978;;;17,17889142
1,23028;;;14,12694734
1,23078;;;11,68539208
1,23128;;;9,854225631
1,23178;;;8,023059185
1,23228;;;4,055531884
1,23278;;;-3,574328308
1,23328;;;-12,73016054
1,23378;;;-20,36002073
1,23428;;;-26,15871448
1,23478;;;-30,73663059
1,23528;;;-33,17818586
1,23578;;;-31,34701941
1,23628;;;-27,98988092
1,23678;;;-26,76910329
1,23728;;;-27,37949211
1,23778;;;-26,15871448
1,23828;;;-22,80157599
1,23878;;;-20,05482632
1,23928;;;-17,30807665
1,23978;;;-12,42496613
1,24028;;;-8,152244424
1,24078;;;-7,236661201
1,24128;;;-7,847050016
1,24178;;;-4,795105939
1,24228;;;2,529559846
1,24278;;;10,15942004
1,24328;;;17,17889142
1,24378;;;26,33472365
1,24428;;;36,4061391
1,24478;;;41,28924962
1,24528;;;40,67886081
1,24578;;;39,15288877
1,24628;;;38,84769436
1,24678;;;37,62691673
1,24728;;;35,18536147
1,24778;;;33,96458384
1,24828;;;33,35419502
1,24878;;;30,30225095
1,24928;;;25,11394602
1,24978;;;20,84122431
1,25028;;;18,09447464
1,25078;;;15,04253056
1,25128;;;12,29578089
1,25178;;;10,76980885
1,25228;;;7,412670369
1,25278;;;-1,437967454
1,25328;;;-13,03535495
1,25378;;;-21,27560395
1,25428;;;-25,54832566
1,25478;;;-29,82104737
1,25528;;;-32,87299145
1,25578;;;-31,34701941
1,25628;;;-27,0742977
1,25678;;;-25,54832566
1,25728;;;-27,0742977
1,25778;;;-26,76910329
1,25828;;;-24,32754803
1,25878;;;-22,49638159
1,25928;;;-20,66521514
1,25978;;;-17,00288225
1,26028;;;-12,42496613
1,26078;;;-11,2041885
1,26128;;;-12,11977172
1,26178;;;-9,98341087
1,26228;;;-3,574328308
1,26278;;;3,445143069
1,26328;;;10,76980885
1,26378;;;19,01005786
1,26428;;;26,94511246
1,26478;;;30,91263976
1,26528;;;31,21783417
1,26577;;;30,91263976
1,26627;;;30,30225095
1,26677;;;28,16589009
1,26727;;;26,02952924
1,26777;;;25,72433483
1,26827;;;25,11394602
1,26877;;;21,75680753
1,26927;;;17,17889142
1,26977;;;14,43214175
1,27027;;;13,21136412
1,27077;;;11,07500326
1,27127;;;8,328253592
1,27177;;;5,581503923
1,27227;;;1,003587807
1,27277;;;-6,321077977
1,27327;;;-16,08729902
1,27377;;;-24,32754803
1,27427;;;-30,12624178
1,27477;;;-34,39896349
1,27527;;;-36,53532434
1,27577;;;-35,31454671
1,27627;;;-32,56779704
1,27677;;;-31,041825
1,27727;;;-31,65221382
1,27777;;;-31,34701941
1,27827;;;-28,90546415
1,27877;;;-24,63274244
1,27927;;;-20,97040955
1,27977;;;-19,1392431
1,28027;;;-16,39249343
1,28077;;;-8,762633239
1,28127;;;1,919171031
1,28177;;;8,328253592
1,28227;;;5,581503923
1,28277;;;1,919171031
1,28327;;;7,717864777
1,28377;;;21,14641872
1,28427;;;31,52302858
1,28477;;;33,04900062
1,28527;;;31,82822299
1,28577;;;32,4386118
1,28627;;;32,13341739
1,28677;;;28,77627891
1,28727;;;26,63991805
1,28777;;;27,25030687
1,28827;;;27,25030687
1,28877;;;23,28277957
1,28927;;;18,09447464
1,28977;;;15,65291938
1,29027;;;13,82175293
1,29077;;;10,46461445
1,29127;;;7,412670369
1,29177;;;5,886698331
1,29227;;;2,224365438
1,29277;;;-6,321077977
1,29327;;;-16,39249343
1,29377;;;-23,41196481
1,29427;;;-28,29507533
1,29477;;;-32,87299145
1,29527;;;-35,0093523
1,29577;;;-32,87299145
1,29627;;;-29,51585296
1,29677;;;-28,90546415
1,29727;;;-28,90546415
1,29777;;;-26,15871448
1,29827;;;-22,80157599
1,29877;;;-21,88599277
1,29927;;;-20,66521514
1,29977;;;-16,08729902
1,30027;;;-10,89899409
1,30077;;;-9,678216462
1,30127;;;-10,28860528
1,30177;;;-7,236661201
1,30227;;;0,08800458433
1,30277;;;8,023059185
1,30327;;;15,95811378
1,30377;;;25,11394602
1,30427;;;33,65938943
1,30477;;;37,93211114
1,30527;;;38,23730555
1,30577;;;37,32172232
1,30627;;;36,10094469
1,30677;;;33,35419502
1,30727;;;30,30225095
1,30777;;;29,38666772
1,30827;;;28,77627891
1,30877;;;25,72433483
1,30927;;;21,75680753
1,30977;;;18,70486345
1,31027;;;16,26330819
1,31077;;;12,90616971
1,31127;;;10,15942004
1,31177;;;7,717864777
1,31227;;;2,529559846
1,31277;;;-6,626272385
1,31327;;;-16,39249343
1,31377;;;-22,49638159
1,31427;;;-27,68468652
1,31477;;;-33,78857467
1,31527;;;-37,75610197
1,31577;;;-35,92493552
1,31627;;;-31,95740822
1,31677;;;-31,65221382
1,31727;;;-32,56779704
1,31777;;;-30,12624178
1,31827;;;-26,15871448
1,31877;;;-24,32754803
1,31927;;;-22,80157599
1,31977;;;-17,61327106
1,32027;;;-12,11977172
1,32077;;;-11,50938291
1,32127;;;-13,03535495
1,32176;;;-9,98341087
1,32226;;;-1,743161862
1,32276;;;5,886698331
1,32326;;;13,21136412
1,32376;;;22,67239075
1,32426;;;31,82822299
1,32476;;;35,79575029
1,32526;;;35,18536147
1,32576;;;34,88016706
1,32626;;;35,49055588
1,32676;;;34,57497265
1,32726;;;31,82822299
1,32776;;;30,30225095
1,32826;;;29,69186213
1,32876;;;26,63991805
1,32926;;;22,36719635
1,32976;;;19,62044668
1,33026;;;17,17889142
1,33076;;;14,12694734
1,33126;;;11,38019767
1,33176;;;10,76980885
1,33226;;;7,412670369
1,33276;;;-1,743161862
1,33326;;;-12,73016054
1,33376;;;-20,05482632
1,33426;;;-24,63274244
1,33476;;;-29,82104737
1,33526;;;-33,17818586
1,33576;;;-31,95740822
1,33626;;;-29,21065856
1,33676;;;-28,60026974
1,33726;;;-29,21065856
1,33776;;;-27,0742977
1,33826;;;-24,02235362
1,33876;;;-22,19118718
1,33926;;;-19,1392431
1,33976;;;-13,95093817
1,34026;;;-9,98341087
1,34076;;;-9,678216462
1,34126;;;-9,067827647
1,34176;;;-4,795105939
1,34226;;;0,6983933997
1,34276;;;7,412670369
1,34326;;;16,87369701
1,34376;;;27,25030687
1,34426;;;32,74380621
1,34476;;;34,57497265
1,34526;;;40,98405522
1,34576;;;51,05547067
1,34626;;;52,2762483
1,34676;;;39,45808318
1,34726;;;26,63991805
1,34776;;;25,11394602
1,34826;;;28,77627891
1,34876;;;25,72433483
1,34926;;;18,39966905
1,34976;;;15,34772497
1,35026;;;15,34772497
1,35076;;;11,99058648
1,35126;;;7,107475961
1,35176;;;5,581503923
1,35226;;;2,529559846
1,35276;;;-7,541855608
1,35326;;;-20,97040955
1,35376;;;-28,90546415
1,35426;;;-32,56779704
1,35476;;;-37,14571316
1,35526;;;-41,41843486
1,35576;;;-40,50285164
1,35626;;;-36,53532434
1,35676;;;-36,23012993
1,35726;;;-38,06129638
1,35776;;;-36,53532434
1,35826;;;-32,56779704
1,35876;;;-30,73663059
1,35926;;;-30,73663059
1,35976;;;-27,0742977
1,36026;;;-20,36002073
1,36076;;;-16,39249343
1,36126;;;-14,86652139
1,36176;;;-11,50938291
1,36226;;;-5,100300347
1,36276;;;1,919171031
1,36326;;;9,549031223
1,36376;;;18,70486345
1,36426;;;27,86069569
1,36476;;;32,4386118
1,36526;;;33,04900062
1,36576;;;32,13341739
1,36626;;;30,60744535
1,36676;;;27,55550128
1,36726;;;25,41914042
1,36776;;;25,41914042
1,36826;;;25,41914042
1,36876;;;21,75680753
1,36926;;;15,95811378
1,36976;;;12,29578089
1,37026;;;10,76980885
1,37076;;;8,938642408
1,37126;;;6,497087146
1,37176;;;4,055531884
1,37226;;;-1,132773046
1,37276;;;-10,89899409
1,37326;;;-21,58079836
1,37376;;;-28,60026974
1,37426;;;-33,17818586
1,37476;;;-38,06129638
1,37526;;;-40,50285164
1,37576;;;-38,67168519
1,37626;;;-35,31454671
1,37676;;;-34,70415789
1,37726;;;-35,61974112
1,37776;;;-34,09376908
1,37825;;;-31,041825
1,37875;;;-28,60026974
1,37925;;;-25,54832566
1,37975;;;-19,74963192
1,38025;;;-14,86652139
1,38075;;;-14,56132699
1,38125;;;-14,86652139
1,38175;;;-9,98341087
1,38225;;;-1,743161862
1,38275;;;5,276309515
1,38325;;;12,90616971
1,38375;;;23,28277957
1,38425;;;32,4386118
1,38475;;;35,49055588
1,38525;;;35,18536147
1,38575;;;35,49055588
1,38625;;;35,49055588
1,38675;;;32,74380621
1,38725;;;29,69186213
1,38775;;;31,21783417
1,38825;;;33,04900062
1,38875;;;29,69186213
1,38925;;;23,58797398
1,38975;;;20,5360299
1,39025;;;19,92564108
1,39075;;;17,17889142
1,39125;;;13,82175293
1,39175;;;11,99058648
1,39225;;;8,938642408
1,39275;;;-0,5223842311
1,39325;;;-13,34054935
1,39375;;;-21,58079836
1,39425;;;-26,15871448
1,39475;;;-30,73663059
1,39525;;;-34,70415789
1,39575;;;-33,48338026
1,39625;;;-28,90546415
1,39675;;;-27,37949211
1,39725;;;-28,90546415
1,39775;;;-27,37949211
1,39825;;;-23,1067704
1,39875;;;-20,66521514
1,39925;;;-19,1392431
1,39975;;;-14,56132699
1,40025;;;-9,678216462
1,40075;;;-9,373022054
1,40125;;;-11,2041885
1,40175;;;-7,236661201
1,40225;;;2,224365438
1,40275;;;11,38019767
1,40325;;;18,39966905
1,40375;;;27,25030687
1,40425;;;37,32172232
1,40475;;;42,51002725
1,40525;;;41,28924962
1,40575;;;39,45808318
1,40625;;;38,84769436
1,40675;;;37,62691673
1,40725;;;34,88016706
1,40775;;;34,26977825
1,40825;;;34,88016706
1,40875;;;31,52302858
1,40925;;;24,5035572
1,40975;;;20,5360299
1,41025;;;21,14641872
1,41075;;;19,31525227
1,41125;;;12,90616971
1,41175;;;8,938642408
1,41225;;;12,29578089
1,41275;;;14,12694734
1,41325;;;4,055531884
1,41375;;;-15,47691021
1,41425;;;-31,65221382
1,41475;;;-37,14571316
1,41525;;;-35,31454671
1,41575;;;-32,26260263
1,41625;;;-31,041825
1,41675;;;-30,12624178
1,41725;;;-28,29507533
1,41775;;;-25,85352007
1,41825;;;-23,71715922
1,41875;;;-21,88599277
1,41925;;;-18,22365988
1,41975;;;-12,42496613
1,42025;;;-8,152244424
1,42075;;;-7,847050016
1,42125;;;-9,067827647
1,42175;;;-6,321077977
1,42225;;;1,003587807
1,42275;;;9,854225631
1,42325;;;18,39966905
1,42375;;;27,25030687
1,42425;;;35,79575029
1,42475;;;40,06847199
1,42525;;;39,76327759
1,42575;;;38,23730555
1,42625;;;37,32172232
1,42675;;;35,49055588
1,42725;;;33,35419502
1,42775;;;32,13341739
1,42825;;;31,52302858
1,42875;;;28,16589009
1,42925;;;22,36719635
1,42975;;;18,09447464
1,43025;;;16,26330819
1,43075;;;13,82175293
1,43125;;;9,549031223
1,43175;;;6,191892738
1,43225;;;4,055531884
1,43275;;;-0,2171898234
1,43325;;;-8,762633239
1,43375;;;-18,22365988
1,43424;;;-27,37949211
1,43474;;;-36,53532434
1,43524;;;-43,55479572
1,43574;;;-43,85999012
1,43624;;;-38,67168519
1,43674;;;-35,92493552
1,43724;;;-38,36649079
1,43774;;;-39,89246282
1,43824;;;-36,53532434
1,43874;;;-32,26260263
1,43924;;;-31,041825
1,43974;;;-28,90546415
1,44024;;;-22,80157599
1,44074;;;-17,61327106
1,44124;;;-17,30807665
1,44174;;;-18,22365988
1,44224;;;-13,64574376
1,44274;;;-5,100300347
1,44324;;;2,529559846
1,44374;;;9,854225631
1,44424;;;19,62044668
1,44474;;;28,77627891
1,44524;;;32,13341739
1,44574;;;31,21783417
1,44624;;;29,99705654
1,44674;;;29,69186213
1,44724;;;28,16589009
1,44774;;;25,72433483
1,44824;;;24,80875161
1,44874;;;24,5035572
1,44924;;;20,84122431
1,44974;;;15,95811378
1,45024;;;13,21136412
1,45074;;;11,68539208
1,45124;;;8,938642408
1,45174;;;5,276309515
1,45224;;;1,919171031
1,45274;;;-2,353550677
1,45324;;;-11,50938291
1,45374;;;-22,80157599
1,45424;;;-32,26260263
1,45474;;;-38,67168519
1,45524;;;-43,55479572
1,45574;;;-45,08076776
1,45624;;;-42,9444069
1,45674;;;-40,19765723
1,45724;;;-39,58726842
1,45774;;;-39,58726842
1,45824;;;-37,14571316
1,45874;;;-34,09376908
1,45924;;;-31,65221382
1,45974;;;-28,90546415
1,46024;;;-24,02235362
1,46074;;;-20,05482632
1,46124;;;-19,44443751
1,46174;;;-18,83404869
1,46224;;;-14,56132699
1,46274;;;-7,541855608
1,46324;;;0,08800458433
1,46374;;;8,938642408
1,46424;;;19,31525227
1,46474;;;27,55550128
1,46524;;;30,30225095
1,46574;;;29,99705654
1,46624;;;28,77627891
1,46674;;;26,63991805
1,46724;;;23,89316839
1,46774;;;22,67239075
1,46824;;;22,97758516
1,46874;;;21,75680753
1,46924;;;17,17889142
1,46974;;;13,51655852
1,47024;;;11,38019767
1,47074;;;8,633448
1,47124;;;4,6659207
1,47174;;;2,224365438
1,47224;;;0,6983933997
1,47274;;;-4,795105939
1,47324;;;-15,78210462
1,47374;;;-26,15871448
1,47424;;;-33,17818586
1,47474;;;-39,89246282
1,47524;;;-45,99635098
1,47574;;;-47,21712861
1,47624;;;-43,85999012
1,47674;;;-41,41843486
1,47724;;;-41,72362927
1,47774;;;-39,58726842
1,47824;;;-35,31454671
1,47874;;;-34,09376908
1,47924;;;-32,87299145
1,47974;;;-22,49638159
1,48024;;;-5,710689162
1,48074;;;0,08800458433
1,48124;;;-9,067827647
1,48174;;;-18,52885429
1,48224;;;-13,34054935
1,48274;;;-0,5223842311
1,48324;;;8,023059185
1,48374;;;14,43214175
1,48424;;;25,11394602
1,48474;;;35,79575029
1,48524;;;39,15288877
1,48574;;;37,93211114
1,48624;;;38,54249995
1,48674;;;39,76327759
1,48724;;;37,01652792
1,48774;;;33,65938943
1,48824;;;33,96458384
1,48874;;;34,88016706
1,48924;;;30,91263976
1,48974;;;24,5035572
1,49024;;;22,06200194
1,49073;;;21,75680753
1,49123;;;19,62044668
1,49173;;;16,5685026
1,49223;;;14,43214175
1,49273;;;9,549031223
1,49323;;;-0,5223842311
1,49373;;;-11,81457732
1,49423;;;-18,52885429
1,49473;;;-23,41196481
1,49523;;;-28,90546415
1,49573;;;-31,65221382
1,49623;;;-28,90546415
1,49673;;;-24,63274244
1,49723;;;-25,24313125
1,49773;;;-26,76910329
1,49823;;;-24,32754803
1,49873;;;-19,74963192
1,49923;;;-17,00288225
1,49973;;;-14,56132699
1,50023;;;-9,373022054
1,50073;;;-4,184717123
1,50123;;;-3,2691339
1,50173;;;-3,574328308
1,50223;;;0,6983933997
1,50273;;;8,938642408
1,50323;;;17,48408582
1,50373;;;25,72433483
1,50423;;;36,10094469
1,50473;;;45,25677692
1,50523;;;48,308721
1,50573;;;47,39313778
1,50623;;;46,78274896
1,50673;;;46,78274896
1,50723;;;44,3411937
1,50773;;;41,59444403
1,50823;;;40,67886081
1,50873;;;40,3736664
1,50923;;;36,71133351
1,50973;;;30,91263976
1,51023;;;26,63991805
1,51073;;;24,19836279
1,51123;;;22,06200194
1,51173;;;19,62044668
1,51223;;;16,5685026
1,51273;;;10,15942004
1,51323;;;-0,2171898234
1,51373;;;-10,89899409
1,51423;;;-18,83404869
1,51473;;;-24,32754803
1,51523;;;-29,82104737
1,51573;;;-32,56779704
1,51623;;;-30,73663059
1,51673;;;-28,29507533
1,51723;;;-28,29507533
1,51773;;;-28,60026974
1,51823;;;-26,15871448
1,51873;;;-22,49638159
1,51923;;;-20,66521514
1,51973;;;-18,22365988
1,52023;;;-13,03535495
1,52073;;;-8,762633239
1,52123;;;-8,152244424
1,52173;;;-8,457438831
1,52223;;;-4,184717123
1,52273;;;3,445143069
1,52323;;;11,38019767
1,52373;;;19,01005786
1,52423;;;28,77627891
1,52473;;;37,32172232
1,52523;;;40,3736664
1,52573;;;39,15288877
1,52623;;;37,62691673
1,52673;;;36,4061391
1,52723;;;33,35419502
1,52773;;;30,60744535
1,52823;;;29,99705654
1,52873;;;29,08147332
1,52923;;;24,5035572
1,52973;;;18,39966905
1,53023;;;15,04253056
1,53073;;;13,82175293
1,53123;;;11,07500326
1,53173;;;7,717864777
1,53223;;;5,276309515
1,53273;;;0,6983933997
1,53323;;;-9,373022054
1,53373;;;-22,19118718
1,53423;;;-30,12624178
1,53473;;;-34,09376908
1,53523;;;-38,9768796
1,53573;;;-43,24960131
1,53623;;;-41,41843486
1,53673;;;-35,61974112
1,53723;;;-35,0093523
1,53773;;;-39,58726842
1,53823;;;-38,36649079
1,53873;;;-26,46390889
1,53923;;;-13,64574376
1,53973;;;-11,50938291
1,54023;;;-18,22365988
1,54073;;;-23,71715922
1,54123;;;-23,71715922
1,54173;;;-20,66521514
1,54223;;;-16,39249343
1,54273;;;-9,98341087
1,54323;;;-0,8275786388
1,54373;;;9,243836815
1,54423;;;19,62044668
1,54473;;;27,55550128
1,54523;;;30,91263976
1,54573;;;30,60744535
1,54623;;;28,4710845
1,54672;;;26,33472365
1,54722;;;24,5035572
1,54772;;;22,67239075
1,54822;;;21,75680753
1,54872;;;20,23083549
1,54922;;;15,95811378
1,54972;;;11,07500326
1,55022;;;7,412670369
1,55072;;;5,276309515
1,55122;;;3,750337477
1,55172;;;1,919171031
1,55222;;;-0,5223842311
1,55272;;;-6,931466793
1,55322;;;-17,61327106
1,55372;;;-27,98988092
1,55422;;;-35,61974112
1,55472;;;-41,72362927
1,55522;;;-47,21712861
1,55572;;;-49,04829506
1,55622;;;-45,99635098
1,55672;;;-42,63921249
1,55722;;;-42,02882368
1,55772;;;-41,72362927
1,55822;;;-38,06129638
1,55872;;;-33,48338026
1,55922;;;-31,34701941
1,55972;;;-28,29507533
1,56022;;;-21,27560395
1,56072;;;-15,1717158
1,56122;;;-14,25613258
1,56172;;;-14,56132699
1,56222;;;-9,678216462
1,56272;;;0,393198992
1,56322;;;10,76980885
1,56372;;;20,23083549
1,56422;;;31,52302858
1,56472;;;41,28924962
1,56522;;;45,25677692
1,56572;;;44,64638811
1,56622;;;44,3411937
1,56672;;;44,95158252
1,56722;;;44,03599929
1,56772;;;41,89963844
1,56822;;;40,98405522
1,56872;;;39,45808318
1,56922;;;35,49055588
1,56972;;;30,60744535
1,57022;;;27,25030687
1,57072;;;25,41914042
1,57122;;;23,28277957
1,57172;;;21,14641872
1,57222;;;18,39966905
1,57272;;;11,68539208
1,57322;;;0,08800458433
1,57372;;;-10,59379969
1,57422;;;-17,30807665
1,57472;;;-22,80157599
1,57522;;;-28,90546415
1,57572;;;-31,95740822
1,57622;;;-29,51585296
1,57672;;;-25,85352007
1,57722;;;-24,93793685
1,57772;;;-25,24313125
1,57822;;;-23,1067704
1,57872;;;-19,44443751
1,57922;;;-16,39249343
1,57972;;;-12,42496613
1,58022;;;-6,931466793
1,58072;;;-2,963939493
1,58122;;;-3,2691339
1,58172;;;-2,963939493
1,58222;;;2,529559846
1,58272;;;11,38019767
1,58322;;;19,92564108
1,58372;;;28,77627891
1,58422;;;39,45808318
1,58472;;;48,00352659
1,58522;;;50,44508186
1,58572;;;48,91910982
1,58622;;;47,69833219
1,58672;;;46,47755455
1,58722;;;44,03599929
1,58772;;;41,59444403
1,58822;;;40,06847199
1,58872;;;37,32172232
1,58922;;;32,13341739
1,58972;;;26,94511246
1,59022;;;23,89316839
1,59072;;;20,84122431
1,59122;;;17,17889142
1,59172;;;14,43214175
1,59222;;;11,38019767
1,59272;;;3,750337477
1,59322;;;-8,152244424
1,59372;;;-18,83404869
1,59422;;;-25,54832566
1,59472;;;-31,95740822
1,59522;;;-38,67168519
1,59572;;;-40,80804605
1,59622;;;-37,75610197
1,59672;;;-35,92493552
1,59722;;;-38,06129638
1,59772;;;-38,36649079
1,59822;;;-33,48338026
1,59872;;;-30,43143619
1,59922;;;-31,041825
1,59972;;;-28,29507533
1,60022;;;-20,05482632
1,60072;;;-15,47691021
1,60122;;;-19,74963192
1,60172;;;-20,36002073
1,60222;;;-6,626272385
1,60272;;;11,07500326
1,60321;;;17,78928023
1,60371;;;14,73733615
1,60421;;;16,5685026
1,60471;;;26,63991805
1,60521;;;33,96458384
1,60571;;;33,04900062
1,60621;;;29,69186213
1,60671;;;29,08147332
1,60721;;;29,08147332
1,60771;;;27,55550128
1,60821;;;24,80875161
1,60871;;;21,75680753
1,60921;;;17,78928023
1,60971;;;13,51655852
1,61021;;;10,15942004
1,61071;;;6,802281554
1,61121;;;3,445143069
1,61171;;;1,003587807
1,61221;;;-2,04835627
1,61271;;;-9,373022054
1,61321;;;-20,66521514
1,61371;;;-31,34701941
1,61421;;;-38,67168519
1,61471;;;-45,08076776
1,61521;;;-50,8794615
1,61571;;;-52,40543354
1,61621;;;-49,35348946
1,61671;;;-46,30154539
1,61721;;;-47,21712861
1,61771;;;-46,9119342
1,61821;;;-42,9444069
1,61871;;;-38,36649079
1,61921;;;-36,23012993
1,61971;;;-33,17818586
1,62021;;;-27,68468652
1,62071;;;-24,02235362
1,62121;;;-24,32754803
1,62171;;;-23,41196481
1,62221;;;-17,30807665
1,62271;;;-8,457438831
1,62321;;;0,08800458433
1,62371;;;8,938642408
1,62421;;;19,31525227
1,62471;;;27,25030687
1,62521;;;29,38666772
1,62571;;;28,77627891
1,62621;;;28,4710845
1,62671;;;26,94511246
1,62721;;;24,19836279
1,62771;;;22,97758516
1,62821;;;23,89316839
1,62871;;;22,67239075
1,62921;;;18,09447464
1,62971;;;13,51655852
1,63021;;;11,68539208
1,63071;;;9,854225631
1,63121;;;7,107475961
1,63171;;;5,276309515
1,63221;;;3,750337477
1,63271;;;-2,04835627
1,63321;;;-13,95093817
1,63371;;;-25,54832566
1,63421;;;-32,56779704
1,63471;;;-38,36649079
1,63521;;;-44,16518453
1,63571;;;-45,69115657
1,63621;;;-41,41843486
1,63671;;;-37,14571316
1,63721;;;-36,84051875
1,63771;;;-37,14571316
1,63821;;;-33,78857467
1,63871;;;-30,12624178
1,63921;;;-28,60026974
1,63971;;;-25,85352007
1,64021;;;-19,74963192
1,64071;;;-15,1717158
1,64121;;;-15,78210462
1,64171;;;-16,69768784
1,64221;;;-11,50938291
1,64271;;;-2,04835627
1,64321;;;7,107475961
1,64371;;;15,95811378
1,64421;;;26,02952924
1,64471;;;34,26977825
1,64521;;;37,01652792
1,64571;;;35,79575029
1,64621;;;34,26977825
1,64671;;;33,04900062
1,64721;;;31,52302858
1,64771;;;30,30225095
1,64821;;;29,08147332
1,64871;;;26,02952924
1,64921;;;20,5360299
1,64971;;;15,95811378
1,65021;;;13,51655852
1,65071;;;10,76980885
1,65121;;;7,412670369
1,65171;;;5,581503923
1,65221;;;3,750337477
1,65271;;;-3,2691339
1,65321;;;-15,78210462
1,65371;;;-27,68468652
1,65421;;;-34,70415789
1,65471;;;-40,80804605
1,65521;;;-46,9119342
1,65571;;;-48,74310065
1,65621;;;-44,77557335
1,65671;;;-41,41843486
1,65721;;;-42,02882368
1,65771;;;-41,11324046
1,65821;;;-36,23012993
1,65871;;;-31,65221382
1,65920;;;-30,12624178
1,65970;;;-26,46390889
1,66020;;;-19,74963192
1,66070;;;-16,08729902
1,66120;;;-17,61327106
1,66170;;;-16,08729902
1,66220;;;-6,931466793
1,66270;;;1,919171031
1,66320;;;8,023059185
1,66370;;;16,87369701
1,66420;;;31,82822299
1,66470;;;42,20483285
1,66520;;;41,59444403
1,66570;;;40,3736664
1,66620;;;48,61391541
1,66670;;;57,46455323
1,66720;;;53,19183152
1,66770;;;40,3736664
1,66820;;;32,74380621
1,66870;;;33,35419502
1,66920;;;31,82822299
1,66970;;;25,72433483
1,67020;;;20,84122431
1,67070;;;19,92564108
1,67120;;;18,39966905
1,67170;;;14,73733615
1,67220;;;10,15942004
1,67270;;;4,055531884
1,67320;;;-5,710689162
1,67370;;;-17,30807665
1,67420;;;-25,54832566
1,67470;;;-30,43143619
1,67520;;;-34,39896349
1,67570;;;-35,61974112
1,67620;;;-33,17818586
1,67670;;;-29,82104737
1,67720;;;-28,90546415
1,67770;;;-28,60026974
1,67820;;;-25,54832566
1,67870;;;-21,27560395
1,67920;;;-17,91846547
1,67970;;;-13,95093817
1,68020;;;-8,762633239
1,68070;;;-5,405494754
1,68120;;;-5,405494754
1,68170;;;-3,879522716
1,68220;;;3,139948661
1,68270;;;13,21136412
1,68320;;;22,06200194
1,68370;;;31,21783417
1,68420;;;41,89963844
1,68470;;;50,75027626
1,68520;;;54,41260916
1,68570;;;53,80222034
1,68620;;;52,58144271
1,68670;;;51,36066508
1,68720;;;48,91910982
1,68770;;;46,47755455
1,68820;;;44,64638811
1,68870;;;42,51002725
1,68920;;;39,45808318
1,68970;;;35,79575029
1,69020;;;32,13341739
1,69070;;;28,4710845
1,69120;;;25,11394602
1,69170;;;23,58797398
1,69220;;;20,84122431
1,69270;;;11,99058648
1,69320;;;-0,2171898234
1,69370;;;-10,28860528
1,69420;;;-16,69768784
1,69470;;;-23,1067704
1,69520;;;-29,21065856
1,69570;;;-31,041825
1,69620;;;-27,0742977
1,69670;;;-24,02235362
1,69720;;;-24,32754803
1,69770;;;-23,41196481
1,69820;;;-19,44443751
1,69870;;;-15,47691021
1,69920;;;-13,64574376
1,69970;;;-10,59379969
1,70020;;;-4,795105939
1,70070;;;-1,132773046
1,70120;;;-1,132773046
1,70170;;;-0,2171898234
1,70220;;;5,276309515
1,70270;;;14,12694734
1,70320;;;22,97758516
1,70370;;;32,4386118
1,70420;;;42,20483285
1,70470;;;48,61391541
1,70520;;;50,13988745
1,70570;;;49,52949863
1,70620;;;49,22430422
1,70670;;;47,69833219
1,70720;;;44,64638811
1,70770;;;42,20483285
1,70820;;;40,98405522
1,70870;;;37,93211114
1,70920;;;32,13341739
1,70970;;;26,33472365
1,71020;;;22,06200194
1,71070;;;18,70486345
1,71120;;;15,65291938
1,71170;;;13,82175293
1,71220;;;10,46461445
1,71270;;;1,919171031
1,71320;;;-10,28860528
1,71370;;;-21,27560395
1,71420;;;-29,21065856
1,71470;;;-36,23012993
1,71520;;;-41,11324046
1,71569;;;-41,11324046
1,71619;;;-38,06129638
1,71669;;;-37,14571316
1,71719;;;-37,75610197
1,71769;;;-35,92493552
1,71819;;;-31,34701941
1,71869;;;-27,98988092
1,71919;;;-25,85352007
1,71969;;;-21,58079836
1,72019;;;-15,78210462
1,72069;;;-13,03535495
1,72119;;;-13,34054935
1,72169;;;-11,50938291
1,72219;;;-5,710689162
1,72269;;;2,224365438
1,72319;;;11,07500326
1,72369;;;21,75680753
1,72419;;;32,13341739
1,72469;;;38,84769436
1,72519;;;41,59444403
1,72569;;;42,20483285
1,72619;;;40,06847199
1,72669;;;37,01652792
1,72719;;;35,49055588
1,72769;;;35,18536147
1,72819;;;31,82822299
1,72869;;;24,80875161
1,72919;;;23,28277957
1,72969;;;29,08147332
1,73019;;;31,21783417
1,73069;;;20,23083549
1,73119;;;5,276309515
1,73169;;;0,08800458433
1,73219;;;0,393198992
1,73269;;;-6,321077977
1,73319;;;-21,27560395
1,73369;;;-33,48338026
1,73419;;;-39,28207401
1,73469;;;-44,77557335
1,73519;;;-51,79504472
1,73569;;;-53,01582236
1,73619;;;-48,13271183
1,73669;;;-45,38596216
1,73719;;;-47,21712861
1,73769;;;-47,21712861
1,73819;;;-42,63921249
1,73869;;;-38,67168519
1,73919;;;-36,84051875
1,73969;;;-33,17818586
1,74019;;;-27,0742977
1,74069;;;-23,71715922
1,74119;;;-24,63274244
1,74169;;;-23,1067704
1,74219;;;-15,78210462
1,74269;;;-6,321077977
1,74319;;;2,224365438
1,74369;;;13,21136412
1,74419;;;25,41914042
1,74469;;;33,96458384
1,74519;;;36,10094469
1,74569;;;35,18536147
1,74619;;;34,26977825
1,74669;;;32,4386118
1,74719;;;29,99705654
1,74769;;;28,16589009
1,74819;;;26,63991805
1,74869;;;22,67239075
1,74919;;;16,87369701
1,74969;;;12,29578089
1,75019;;;9,854225631
1,75069;;;6,497087146
1,75119;;;3,139948661
1,75169;;;1,003587807
1,75219;;;-2,658745085
1,75269;;;-13,34054935
1,75319;;;-27,98988092
1,75369;;;-39,28207401
1,75419;;;-46,30154539
1,75469;;;-53,01582236
1,75519;;;-59,42490492
1,75569;;;-60,95087696
1,75619;;;-57,89893288
1,75669;;;-55,76257203
1,75719;;;-55,76257203
1,75769;;;-54,54179439
1,75819;;;-50,8794615
1,75869;;;-47,52232302
1,75919;;;-45,08076776
1,75969;;;-39,89246282
1,76019;;;-33,17818586
1,76069;;;-29,82104737
1,76119;;;-30,43143619
1,76169;;;-27,37949211
1,76219;;;-18,52885429
1,76269;;;-7,847050016
1,76319;;;1,308782215
1,76369;;;12,90616971
1,76419;;;25,41914042
1,76469;;;34,57497265
1,76519;;;37,01652792
1,76569;;;36,71133351
1,76619;;;36,4061391
1,76669;;;34,26977825
1,76719;;;30,91263976
1,76769;;;29,38666772
1,76819;;;29,38666772
1,76869;;;26,63991805
1,76919;;;19,92564108
1,76969;;;13,51655852
1,77019;;;10,76980885
1,77069;;;9,243836815
1,77119;;;6,497087146
1,77168;;;3,750337477
1,77218;;;-0,8275786388
1,77268;;;-10,59379969
1,77318;;;-23,71715922
1,77368;;;-35,0093523
1,77418;;;-42,9444069
1,77468;;;-49,96387828
1,77518;;;-55,15218321
1,77568;;;-54,8469888
1,77618;;;-50,26907269
1,77668;;;-46,9119342
1,77718;;;-45,99635098
1,77768;;;-42,9444069
1,77818;;;-37,14571316
1,77868;;;-31,95740822
1,77918;;;-28,60026974
1,77968;;;-21,88599277
1,78018;;;-12,73016054
1,78068;;;-7,847050016
1,78118;;;-8,457438831
1,78168;;;-6,626272385
1,78218;;;1,919171031
1,78268;;;14,43214175
1,78318;;;26,33472365
1,78368;;;39,45808318
1,78418;;;53,19183152
1,78468;;;63,26324698
1,78518;;;66,62038546
1,78568;;;67,84116309
1,78618;;;69,06194072
1,78668;;;67,53596869
1,78718;;;63,26324698
1,78768;;;59,90610849
1,78818;;;59,60091409
1,78868;;;57,46455323
1,78918;;;51,36066508
1,78968;;;45,56197133
1,79018;;;43,42561048
1,79068;;;40,3736664
1,79118;;;34,57497265
1,79168;;;29,99705654
1,79218;;;27,25030687
1,79268;;;18,09447464
1,79318;;;-0,2171898234
1,79368;;;-17,61327106
1,79418;;;-21,88599277
1,79468;;;-18,83404869
1,79518;;;-21,58079836
1,79568;;;-32,56779704
1,79618;;;-41,72362927
1,79668;;;-42,02882368
1,79718;;;-38,06129638
1,79768;;;-35,0093523
1,79818;;;-33,48338026
1,79868;;;-30,73663059
1,79918;;;-26,15871448
1,79968;;;-20,36002073
1,80018;;;-14,86652139
1,80068;;;-12,42496613
1,80118;;;-12,11977172
1,80168;;;-10,28860528
1,80218;;;-3,574328308
1,80268;;;7,717864777
1,80318;;;20,84122431
1,80368;;;34,57497265
1,80418;;;46,47755455
1,80468;;;54,41260916
1,80518;;;57,76974764
1,80568;;;58,07494205
1,80618;;;56,2437756
1,80668;;;52,2762483
1,80718;;;47,69833219
1,80768;;;44,64638811
1,80818;;;42,20483285
1,80868;;;37,32172232
1,80918;;;30,30225095
1,80968;;;24,19836279
1,81018;;;19,62044668
1,81068;;;14,73733615
1,81118;;;10,76980885
1,81168;;;7,717864777
1,81218;;;1,613976623
1,81268;;;-11,2041885
1,81318;;;-28,29507533
1,81368;;;-42,02882368
1,81418;;;-50,57426709
1,81468;;;-58,50932169
1,81518;;;-65,52879307
1,81568;;;-66,7495707
1,81618;;;-62,17165459
1,81668;;;-58,20412729
1,81718;;;-58,20412729
1,81768;;;-56,98334966
1,81818;;;-51,79504472
1,81868;;;-45,99635098
1,81918;;;-41,72362927
1,81968;;;-35,92493552
1,82018;;;-28,60026974
1,82068;;;-23,41196481
1,82118;;;-22,19118718
1,82168;;;-19,44443751
1,82218;;;-9,98341087
1,82268;;;3,750337477
1,82318;;;18,70486345
1,82368;;;33,35419502
1,82418;;;47,69833219
1,82468;;;58,68533086
1,82518;;;64,1788302
1,82568;;;64,78921902
1,82618;;;63,26324698
1,82668;;;61,12688612
1,82718;;;59,60091409
1,82768;;;58,07494205
1,82817;;;55,63338679
1,82867;;;51,36066508
1,82917;;;46,78274896
1,82967;;;43,42561048
1,83017;;;40,06847199
1,83067;;;36,4061391
1,83117;;;33,96458384
1,83167;;;32,4386118
1,83217;;;26,33472365
1,83267;;;12,6009753
1,83317;;;-3,2691339
1,83367;;;-16,08729902
1,83417;;;-25,85352007
1,83467;;;-35,92493552
1,83517;;;-42,63921249
1,83567;;;-42,02882368
1,83617;;;-37,45090756
1,83667;;;-35,31454671
1,83717;;;-35,0093523
1,83767;;;-31,34701941
1,83817;;;-25,54832566
1,83867;;;-21,88599277
1,83917;;;-19,1392431
1,83967;;;-13,64574376
1,84017;;;-6,321077977
1,84067;;;-2,963939493
1,84117;;;-3,574328308
1,84167;;;-1,132773046
1,84217;;;8,328253592
1,84267;;;21,75680753
1,84317;;;35,18536147
1,84367;;;48,91910982
1,84417;;;62,04246935
1,84467;;;71,80869039
1,84517;;;75,16582888
1,84567;;;74,25024566
1,84617;;;71,80869039
1,84667;;;68,1463575
1,84717;;;63,56844139
1,84767;;;58,99052527
1,84817;;;54,71780356
1,84867;;;50,13988745
1,84917;;;44,03599929
1,84967;;;37,01652792
1,85017;;;30,30225095
1,85067;;;25,41914042
1,85117;;;21,75680753
1,85167;;;16,87369701
1,85217;;;7,412670369
1,85267;;;-6,931466793
1,85317;;;-24,63274244
1,85367;;;-42,02882368
1,85417;;;-56,37296084
1,85467;;;-65,52879307
1,85517;;;-71,02229241
1,85567;;;-74,98981971
1,85617;;;-75,90540293
1,85667;;;-69,80151478
1,85717;;;-58,20412729
1,85767;;;-51,79504472
1,85817;;;-56,98334966
1,85867;;;-65,52879307
1,85917;;;-64,91840426
1,85967;;;-56,37296084
1,86017;;;-50,57426709
1,86067;;;-52,10023913
1,86117;;;-54,23659999
1,86167;;;-49,96387828
1,86217;;;-41,11324046
1,86267;;;-31,041825
1,86317;;;-18,52885429
1,86367;;;-3,574328308
1,86417;;;9,549031223
1,86467;;;17,48408582
1,86517;;;21,14641872
1,86567;;;22,06200194
1,86617;;;19,31525227
1,86667;;;14,73733615
1,86717;;;11,99058648
1,86767;;;11,07500326
1,86817;;;8,023059185
1,86867;;;2,529559846
1,86917;;;-1,132773046
1,86967;;;-2,963939493
1,87017;;;-5,710689162
1,87067;;;-9,98341087
1,87117;;;-12,11977172
1,87167;;;-12,73016054
1,87217;;;-18,83404869
1,87267;;;-33,17818586
1,87317;;;-49,04829506
1,87367;;;-61,25607136
1,87417;;;-71,32748682
1,87467;;;-81,70409668
1,87517;;;-87,80798483
1,87567;;;-85,67162398
1,87617;;;-80,17812464
1,87667;;;-76,21059734
1,87717;;;-73,15865326
1,87767;;;-67,05476511
1,87817;;;-59,42490492
1,87867;;;-53,32101676
1,87917;;;-46,60673979
1,87967;;;-37,45090756
1,88017;;;-29,51585296
1,88067;;;-26,46390889
1,88117;;;-25,85352007
1,88167;;;-20,36002073
1,88217;;;-8,457438831
1,88267;;;5,581503923
1,88317;;;21,75680753
1,88367;;;39,15288877
1,88416;;;55,02299797
1,88466;;;65,09441342
1,88516;;;69,36713513
1,88566;;;70,58791276
1,88616;;;69,97752395
1,88666;;;67,23077428
1,88716;;;64,48402461
1,88766;;;62,34766376
1,88816;;;58,99052527
1,88866;;;53,19183152
1,88916;;;47,08794337
1,88966;;;42,51002725
1,89016;;;37,01652792
1,89066;;;30,30225095
1,89116;;;25,41914042
1,89166;;;22,06200194
1,89216;;;13,82175293
1,89266;;;-3,2691339
1,89316;;;-22,80157599
1,89366;;;-37,75610197
1,89416;;;-49,65868387
1,89466;;;-61,56126577
1,89516;;;-69,80151478
1,89566;;;-69,49632037
1,89616;;;-64,61320985
1,89666;;;-62,17165459
1,89716;;;-61,25607136
1,89766;;;-56,67815525
1,89816;;;-48,74310065
1,89866;;;-42,63921249
1,89916;;;-38,36649079
1,89966;;;-31,65221382
1,90016;;;-24,02235362
1,90066;;;-19,44443751
1,90116;;;-17,30807665
1,90166;;;-11,50938291
1,90216;;;0,393198992
1,90266;;;16,26330819
1,90316;;;33,35419502
1,90366;;;51,05547067
1,90416;;;67,23077428
1,90466;;;77,60738414
1,90516;;;83,10088348
1,90566;;;85,23724433
1,90616;;;85,84763315
1,90666;;;83,71127229
1,90716;;;80,65932822
1,90766;;;78,82816177
1,90816;;;76,99699533
1,90866;;;72,1138848
1,90916;;;65,70480224
1,90966;;;60,51649731
1,91016;;;57,15935882
1,91066;;;53,80222034
1,91116;;;50,44508186
1,91166;;;46,47755455
1,91216;;;39,15288877
1,91266;;;24,80875161
1,91316;;;6,191892738
1,91366;;;-10,28860528
1,91416;;;-22,49638159
1,91466;;;-32,56779704
1,91516;;;-40,19765723
1,91566;;;-42,33401809
1,91616;;;-38,67168519
1,91666;;;-33,17818586
1,91716;;;-30,43143619
1,91766;;;-28,60026974
1,91816;;;-24,32754803
1,91866;;;-17,30807665
1,91916;;;-11,81457732
1,91966;;;-9,067827647
1,92016;;;-4,489911531
1,92066;;;4,6659207
1,92116;;;15,65291938
1,92166;;;20,84122431
1,92216;;;20,23083549
1,92266;;;22,67239075
1,92316;;;35,79575029
1,92366;;;55,02299797
1,92416;;;70,28271836
1,92466;;;76,38660651
1,92516;;;76,99699533
1,92566;;;75,77621769
1,92616;;;71,80869039
1,92666;;;65,39960783
1,92716;;;58,99052527
1,92766;;;53,19183152
1,92816;;;45,56197133
1,92866;;;35,18536147
1,92916;;;25,11394602
1,92966;;;16,5685026
1,93016;;;7,412670369
1,93066;;;-1,437967454
1,93116;;;-8,152244424
1,93166;;;-14,56132699
1,93216;;;-26,76910329
1,93266;;;-46,9119342
1,93316;;;-68,88593156
1,93366;;;-87,50279043
1,93416;;;-103,3728996
1,93466;;;-117,7170368
1,93516;;;-126,872869
1,93566;;;-128,0936467
1,93616;;;-125,9572858
1,93666;;;-125,0417026
1,93716;;;-124,7365082
1,93766;;;-121,0741753
1,93816;;;-115,8858703
1,93866;;;-111,918343
1,93916;;;-107,9508157
1,93966;;;-101,2365388
1,94016;;;-95,13265062
1,94065;;;-92,99628976
1,94115;;;-92,69109536
1,94165;;;-87,19759602
1,94215;;;-75,90540293
1,94265;;;-60,95087696
1,94315;;;-43,55479572
1,94365;;;-24,63274244
1,94415;;;-7,847050016
1,94465;;;2,834754254
1,94515;;;8,633448
1,94565;;;12,29578089
1,94615;;;13,21136412
1,94665;;;11,07500326
1,94715;;;9,243836815
1,94765;;;10,76980885
1,94815;;;11,38019767
1,94865;;;7,412670369
1,94915;;;1,308782215
1,94965;;;-1,437967454
1,95015;;;-2,963939493
1,95065;;;-5,405494754
1,95115;;;-6,01588357
1,95165;;;-4,795105939
1,95215;;;-8,152244424
1,95265;;;-21,58079836
1,95315;;;-39,58726842
1,95365;;;-52,71062795
1,95415;;;-60,34048814
1,95465;;;-67,05476511
1,95515;;;-71,63268123
1,95565;;;-68,58073715
1,95615;;;-59,42490492
1,95665;;;-51,48985032
1,95715;;;-46,30154539
1,95765;;;-38,67168519
1,95815;;;-28,60026974
1,95865;;;-19,74963192
1,95915;;;-12,73016054
1,95965;;;-3,574328308
1,96015;;;5,886698331
1,96065;;;11,68539208
1,96115;;;15,34772497
1,96165;;;23,58797398
1,96215;;;38,54249995
1,96265;;;56,85416442
1,96315;;;75,16582888
1,96365;;;94,39307656
1,96415;;;112,3995466
1,96465;;;124,9125173
1,96515;;;130,4060167
1,96565;;;131,3215999
1,96615;;;129,7956279
1,96665;;;126,133295
1,96715;;;122,4709621
1,96765;;;119,1138236
1,96815;;;113,9255187
1,96865;;;105,3800752
1,96915;;;97,13982623
1,96965;;;92,25671571
1,97015;;;88,28918841
1,97065;;;82,79568907
1,97115;;;77,30218973
1,97165;;;73,33466243
1,97215;;;64,78921902
1,97265;;;47,08794337
1,97315;;;25,41914042
1,97365;;;8,938642408
1,97415;;;-2,658745085
1,97465;;;-14,25613258
1,97515;;;-23,1067704
1,97565;;;-23,41196481
1,97615;;;-18,83404869
1,97665;;;-16,39249343
1,97715;;;-16,08729902
1,97765;;;-11,81457732
1,97815;;;-4,184717123
1,97865;;;0,08800458433
1,97915;;;2,834754254
1,97965;;;9,243836815
1,98015;;;18,39966905
1,98065;;;21,14641872
1,98115;;;18,70486345
1,98165;;;22,36719635
1,98215;;;36,10094469
1,98265;;;52,58144271
1,98315;;;66,62038546
1,98365;;;82,79568907
1,98415;;;101,4125479
1,98465;;;112,0943522
1,98515;;;110,5683802
1,98565;;;107,2112417
1,98615;;;112,0943522
1,98665;;;118,5034348
1,98715;;;113,3151298
1,98765;;;95,00346538
1,98815;;;76,99699533
1,98865;;;68,1463575
1,98915;;;64,1788302
1,98965;;;58,07494205
1,99015;;;48,61391541
1,99065;;;40,06847199
1,99115;;;35,79575029
1,99165;;;32,13341739
1,99215;;;21,45161312
1,99265;;;1,613976623
1,99315;;;-21,27560395
1,99365;;;-40,80804605
1,99415;;;-55,15218321
1,99465;;;-67,35995952
1,99515;;;-76,21059734
1,99565;;;-78,34695819
1,99615;;;-75,90540293
1,99664;;;-74,07423649
1,99714;;;-73,15865326
1,99764;;;-69,80151478
1,99814;;;-64,00282103
1,99864;;;-59,11971051
1,99914;;;-54,8469888
1,99964;;;-48,13271183
2,00014;;;-41,41843486
2,00064;;;-38,9768796
2,00114;;;-39,58726842
2,00164;;;-35,31454671
2,00214;;;-23,1067704
2,00264;;;-8,152244424
2,00314;;;7,107475961
2,00364;;;23,28277957
2,00414;;;38,54249995
2,00464;;;48,00352659
2,00514;;;49,83469304
2,00564;;;48,00352659
2,00614;;;44,95158252
2,00664;;;39,76327759
2,00714;;;33,65938943
2,00764;;;28,4710845
2,00814;;;23,89316839
2,00864;;;15,95811378
2,00914;;;6,191892738
2,00964;;;-1,132773046
2,01014;;;-5,405494754
2,01064;;;-9,373022054
2,01114;;;-14,25613258
2,01164;;;-19,44443751
2,01214;;;-28,29507533
2,01264;;;-45,99635098
2,01314;;;-67,66515393
2,01364;;;-85,06123516
2,01414;;;-96,04823384
2,01464;;;-105,2040661
2,01514;;;-112,8339263
2,01564;;;-113,1391207
2,01614;;;-107,0352325
2,01664;;;-101,5417332
2,01714;;;-99,10017792
2,01764;;;-93,30148417
2,01814;;;-83,53526313
2,01864;;;-76,21059734
2,01914;;;-71,32748682
2,01964;;;-62,7820434
2,02014;;;-50,57426709
2,02064;;;-44,77557335
2,02114;;;-46,60673979
2,02164;;;-42,33401809
2,02214;;;-24,02235362
2,02264;;;-2,353550677
2,02314;;;8,938642408
2,02364;;;15,34772497
2,02414;;;29,38666772
2,02464;;;49,22430422
2,02514;;;63,56844139
2,02564;;;67,84116309
2,02614;;;67,53596869
2,02664;;;66,92557987
2,02714;;;64,1788302
2,02764;;;59,29571968
2,02814;;;55,32819238
2,02864;;;52,2762483
2,02914;;;45,86716574
2,02964;;;37,62691673
2,03014;;;31,21783417
2,03064;;;27,25030687
2,03114;;;23,58797398
2,03164;;;19,31525227
2,03214;;;14,73733615
2,03264;;;5,886698331
2,03314;;;-10,89899409
2,03364;;;-32,56779704
2,03414;;;-50,57426709
2,03464;;;-63,39243222
2,03514;;;-73,76904208
2,03564;;;-81,39890227
2,03614;;;-81,70409668
2,03664;;;-76,51579175
2,03714;;;-71,93787563
2,03764;;;-69,19112596
2,03814;;;-64,91840426
2,03864;;;-57,59373847
2,03914;;;-50,26907269
2,03964;;;-43,85999012
2,04014;;;-35,61974112
2,04064;;;-27,0742977
2,04114;;;-22,80157599
2,04164;;;-20,97040955
2,04214;;;-15,1717158
2,04264;;;-1,743161862
2,04314;;;15,65291938
2,04364;;;34,88016706
2,04414;;;54,71780356
2,04464;;;71,80869039
2,04514;;;82,49049466
2,04564;;;86,45802196
2,04614;;;87,37360519
2,04664;;;86,45802196
2,04714;;;82,18530026
2,04764;;;76,0814121
2,04814;;;72,41907921
2,04864;;;69,67232954
2,04914;;;62,95805257
2,04964;;;53,49702593
2,05014;;;47,08794337
2,05064;;;43,42561048
2,05114;;;37,32172232
2,05164;;;29,08147332
2,05214;;;25,41914042
2,05264;;;25,72433483
2,05313;;;18,09447464
2,05363;;;-5,100300347
2,05413;;;-35,92493552
2,05463;;;-58,8145161
2,05513;;;-68,88593156
2,05563;;;-70,717098
2,05613;;;-68,58073715
2,05663;;;-64,30801544
2,05713;;;-59,73009933
2,05763;;;-55,45737762
2,05813;;;-50,26907269
2,05863;;;-42,63921249
2,05913;;;-34,09376908
2,05963;;;-25,54832566
2,06013;;;-17,00288225
2,06063;;;-9,067827647
2,06113;;;-4,184717123
2,06163;;;-0,5223842311
2,06213;;;5,886698331
2,06263;;;19,01005786
2,06313;;;36,71133351
2,06363;;;55,93858119
2,06413;;;73,63985684
2,06463;;;87,67879959
2,06513;;;96,52943742
2,06563;;;100,1917703
2,06613;;;99,5813815
2,06663;;;95,61385419
2,06713;;;88,59438282
2,06763;;;80,96452263
2,06813;;;74,25024566
2,06863;;;66,92557987
2,06913;;;58,68533086
2,06963;;;50,13988745
2,07013;;;41,89963844
2,07063;;;33,35419502
2,07113;;;25,41914042
2,07163;;;21,14641872
2,07213;;;16,5685026
2,07263;;;4,360726292
2,07313;;;-16,69768784
2,07363;;;-38,67168519
2,07413;;;-54,54179439
2,07463;;;-67,35995952
2,07513;;;-80,17812464
2,07563;;;-87,80798483
2,07613;;;-85,67162398
2,07663;;;-79,87293023
2,07713;;;-76,82098616
2,07763;;;-74,6846253
2,07813;;;-67,97034833
2,07863;;;-59,42490492
2,07913;;;-53,62621117
2,07963;;;-48,13271183
2,08013;;;-39,28207401
2,08063;;;-31,65221382
2,08113;;;-29,82104737
2,08163;;;-29,51585296
2,08213;;;-22,19118718
2,08263;;;-7,847050016
2,08313;;;7,412670369
2,08363;;;23,28277957
2,08413;;;41,59444403
2,08463;;;58,07494205
2,08513;;;66,31519106
2,08563;;;66,62038546
2,08613;;;64,1788302
2,08663;;;60,2113029
2,08713;;;52,58144271
2,08763;;;43,73080489
2,08813;;;37,01652792
2,08863;;;31,21783417
2,08913;;;22,67239075
2,08963;;;11,99058648
2,09013;;;3,139948661
2,09063;;;-2,963939493
2,09113;;;-9,373022054
2,09163;;;-14,86652139
2,09213;;;-20,36002073
2,09263;;;-31,95740822
2,09313;;;-52,10023913
2,09363;;;-74,07423649
2,09413;;;-91,16512332
2,09463;;;-103,9832884
2,09513;;;-114,6650927
2,09563;;;-120,4637865
2,09613;;;-118,63262
2,09663;;;-112,8339263
2,09713;;;-107,9508157
2,09763;;;-103,0677052
2,09813;;;-94,82745621
2,09863;;;-85,67162398
2,09913;;;-78,04176379
2,09963;;;-69,80151478
2,10013;;;-59,42490492
2,10063;;;-49,65868387
2,10113;;;-44,77557335
2,10163;;;-40,80804605
2,10213;;;-31,95740822
2,10263;;;-16,69768784
2,10313;;;2,834754254
2,10363;;;25,11394602
2,10413;;;46,47755455
2,10463;;;62,65285816
2,10513;;;72,72427362
2,10563;;;78,82816177
2,10613;;;81,26971703
2,10663;;;78,21777296
2,10713;;;72,41907921
2,10763;;;69,06194072
2,10813;;;66,92557987
2,10863;;;60,51649731
2,10912;;;50,75027626
2,10962;;;44,03599929
2,11012;;;39,76327759
2,11062;;;32,74380621
2,11112;;;25,11394602
2,11162;;;22,97758516
2,11212;;;20,5360299
2,11262;;;6,191892738
2,11312;;;-16,39249343
2,11362;;;-31,65221382
2,11412;;;-37,45090756
2,11462;;;-49,35348946
2,11512;;;-72,54826445
2,11562;;;-89,94434569
2,11612;;;-87,80798483
2,11662;;;-77,43137497
2,11712;;;-74,07423649
2,11762;;;-74,6846253
2,11812;;;-68,58073715
2,11862;;;-58,20412729
2,11912;;;-51,79504472
2,11962;;;-47,21712861
2,12012;;;-37,75610197
2,12062;;;-27,37949211
2,12112;;;-23,41196481
2,12162;;;-23,41196481
2,12212;;;-16,69768784
2,12262;;;-1,132773046
2,12312;;;17,17889142
2,12362;;;36,4061391
2,12412;;;57,46455323
2,12462;;;76,0814121
2,12512;;;87,06841078
2,12562;;;91,03593808
2,12612;;;91,9515213
2,12662;;;90,73074367
2,12712;;;86,15282756
2,12762;;;80,96452263
2,12812;;;76,99699533
2,12862;;;71,80869039
2,12912;;;63,87363579
2,12962;;;55,32819238
2,13012;;;49,52949863
2,13062;;;44,3411937
2,13112;;;38,84769436
2,13162;;;34,88016706
2,13212;;;30,60744535
2,13262;;;19,62044668
2,13312;;;-0,2171898234
2,13362;;;-22,49638159
2,13412;;;-39,89246282
2,13462;;;-53,32101676
2,13512;;;-65,83398748
2,13562;;;-73,46384767
2,13612;;;-72,85345886
2,13662;;;-67,97034833
2,13712;;;-64,61320985
2,13762;;;-61,56126577
2,13812;;;-55,15218321
2,13862;;;-47,21712861
2,13912;;;-40,80804605
2,13962;;;-34,70415789
2,14012;;;-26,15871448
2,14062;;;-18,22365988
2,14112;;;-14,86652139
2,14162;;;-13,03535495
2,14212;;;-6,01588357
2,14262;;;7,412670369
2,14312;;;25,41914042
2,14362;;;45,86716574
2,14412;;;66,31519106
2,14462;;;82,49049466
2,14512;;;91,64632689
2,14562;;;95,00346538
2,14612;;;95,00346538
2,14662;;;91,34113249
2,14712;;;84,62685552
2,14762;;;77,91257855
2,14812;;;72,41907921
2,14862;;;66,00999665
2,14912;;;57,15935882
2,14962;;;48,308721
2,15012;;;40,3736664
2,15062;;;31,82822299
2,15112;;;23,89316839
2,15162;;;19,01005786
2,15212;;;14,12694734
2,15262;;;1,308782215
2,15312;;;-20,36002073
2,15362;;;-42,9444069
2,15412;;;-59,42490492
2,15462;;;-72,54826445
2,15512;;;-84,75604076
2,15562;;;-91,77551213
2,15612;;;-89,94434569
2,15662;;;-84,45084635
2,15712;;;-80,48331905
2,15762;;;-76,51579175
2,15812;;;-69,19112596
2,15862;;;-61,25607136
2,15912;;;-55,15218321
2,15962;;;-48,13271183
2,16012;;;-37,45090756
2,16062;;;-27,37949211
2,16112;;;-23,1067704
2,16162;;;-21,27560395
2,16212;;;-14,86652139
2,16262;;;-0,2171898234
2,16312;;;18,70486345
2,16362;;;39,76327759
2,16412;;;59,60091409
2,16462;;;75,16582888
2,16512;;;84,93204993
2,16561;;;89,81516045
2,16611;;;90,42554926
2,16661;;;86,45802196
2,16711;;;80,35413381
2,16761;;;75,16582888
2,16811;;;70,58791276
2,16861;;;64,48402461
2,16911;;;57,15935882
2,16961;;;50,13988745
2,17011;;;43,42561048
2,17061;;;35,49055588
2,17111;;;29,08147332
2,17161;;;26,63991805
2,17211;;;22,67239075
2,17261;;;8,633448
2,17311;;;-12,73016054
2,17361;;;-32,26260263
2,17411;;;-46,9119342
2,17461;;;-60,95087696
2,17511;;;-72,54826445
2,17561;;;-76,21059734
2,17611;;;-72,85345886
2,17661;;;-69,80151478
2,17711;;;-65,83398748
2,17761;;;-54,23659999
2,17811;;;-38,36649079
2,17861;;;-32,26260263
2,17911;;;-37,14571316
2,17961;;;-38,67168519
2,18011;;;-28,60026974
2,18061;;;-17,00288225
2,18111;;;-13,64574376
2,18161;;;-13,64574376
2,18211;;;-6,321077977
2,18261;;;8,023059185
2,18311;;;24,5035572
2,18361;;;42,51002725
2,18411;;;61,73727494
2,18461;;;77,30218973
2,18511;;;84,93204993
2,18561;;;87,06841078
2,18611;;;87,06841078
2,18661;;;84,62685552
2,18711;;;78,52296736
2,18761;;;72,41907921
2,18811;;;67,53596869
2,18861;;;61,12688612
2,18911;;;51,66585949
2,18961;;;42,51002725
2,19011;;;35,49055588
2,19061;;;28,16589009
2,19111;;;20,5360299
2,19161;;;15,95811378
2,19211;;;11,38019767
2,19261;;;-1,132773046
2,19311;;;-23,1067704
2,19361;;;-44,77557335
2,19411;;;-60,64568255
2,19461;;;-74,07423649
2,19511;;;-86,5872072
2,19561;;;-92,08070654
2,19611;;;-88,41837365
2,19661;;;-82,6196799
2,19711;;;-80,48331905
2,19761;;;-78,04176379
2,19811;;;-71,02229241
2,19861;;;-62,17165459
2,19911;;;-55,76257203
2,19961;;;-49,65868387
2,20011;;;-41,11324046
2,20061;;;-34,09376908
2,20111;;;-31,65221382
2,20161;;;-30,12624178
2,20211;;;-22,49638159
2,20261;;;-8,457438831
2,20311;;;8,328253592
2,20361;;;27,25030687
2,20411;;;46,47755455
2,20461;;;62,04246935
2,20511;;;70,58791276
2,20561;;;74,55544006
2,20611;;;75,16582888
2,20661;;;72,1138848
2,20711;;;66,62038546
2,20761;;;61,43208053
2,20811;;;57,46455323
2,20861;;;50,75027626
2,20911;;;41,59444403
2,20961;;;32,74380621
2,21011;;;26,33472365
2,21061;;;19,92564108
2,21111;;;13,21136412
2,21161;;;8,023059185
2,21211;;;1,919171031
2,21261;;;-11,81457732
2,21311;;;-33,17818586
2,21361;;;-54,23659999
2,21411;;;-70,10670919
2,21461;;;-84,14565194
2,21511;;;-96,65862266
2,21561;;;-102,4573164
2,21611;;;-99,40537233
2,21661;;;-94,2170674
2,21711;;;-91,16512332
2,21761;;;-87,19759602
2,21811;;;-79,56773583
2,21861;;;-71,63268123
2,21911;;;-66,13918189
2,21961;;;-58,50932169
2,22011;;;-47,21712861
2,22061;;;-38,06129638
2,22111;;;-35,31454671
2,22160;;;-33,17818586
2,22210;;;-24,02235362
2,22260;;;-7,847050016
2,22310;;;10,76980885
2,22360;;;31,21783417
2,22410;;;52,88663712
2,22460;;;70,58791276
2,22510;;;80,65932822
2,22560;;;84,93204993
2,22610;;;86,45802196
2,22660;;;84,62685552
2,22710;;;80,0489394
2,22760;;;75,47102329
2,22810;;;72,1138848
2,22860;;;66,62038546
2,22910;;;57,76974764
2,22960;;;49,22430422
2,23010;;;42,51002725
2,23060;;;35,49055588
2,23110;;;28,77627891
2,23160;;;24,80875161
2,23210;;;20,23083549
2,23260;;;6,802281554
2,23310;;;-15,1717158
2,23360;;;-36,23012993
2,23410;;;-51,48985032
2,23460;;;-64,91840426
2,23510;;;-78,04176379
2,23560;;;-83,53526313
2,23610;;;-79,56773583
2,23660;;;-74,6846253
2,23710;;;-73,46384767
2,23760;;;-70,10670919
2,23810;;;-61,56126577
2,23860;;;-53,93140558
2,23910;;;-49,35348946
2,23960;;;-41,11324046
2,24010;;;-28,29507533
2,24060;;;-20,66521514
2,24110;;;-20,97040955
2,24160;;;-15,47691021
2,24210;;;4,360726292
2,24260;;;27,86069569
2,24310;;;40,3736664
2,24360;;;47,69833219
2,24410;;;62,34766376
2,24460;;;82,49049466
2,24510;;;95,9190486
2,24560;;;98,05540946
2,24610;;;96,22424301
2,24660;;;94,39307656
2,24710;;;90,73074367
2,24760;;;84,93204993
2,24810;;;79,43855059
2,24860;;;74,25024566
2,24910;;;67,23077428
2,24960;;;58,68533086
2,25010;;;50,44508186
2,25060;;;43,12041607
2,25110;;;37,32172232
2,25160;;;33,96458384
2,25210;;;29,08147332
2,25260;;;15,34772497
2,25310;;;-7,236661201
2,25360;;;-29,51585296
2,25410;;;-45,69115657
2,25460;;;-59,42490492
2,25510;;;-72,54826445
2,25560;;;-79,87293023
2,25610;;;-77,73656938
2,25660;;;-71,63268123
2,25710;;;-69,19112596
2,25760;;;-67,66515393
2,25810;;;-61,86646018
2,25860;;;-53,62621117
2,25910;;;-46,9119342
2,25960;;;-40,80804605
2,26010;;;-32,56779704
2,26060;;;-24,93793685
2,26110;;;-21,58079836
2,26160;;;-19,44443751
2,26210;;;-12,11977172
2,26260;;;1,919171031
2,26310;;;20,23083549
2,26360;;;39,76327759
2,26410;;;58,68533086
2,26460;;;73,63985684
2,26510;;;82,49049466
2,26560;;;86,15282756
2,26610;;;85,54243874
2,26660;;;81,57491144
2,26710;;;76,0814121
2,26760;;;71,19830158
2,26810;;;66,00999665
2,26860;;;58,68533086
2,26910;;;49,52949863
2,26960;;;41,28924962
2,27010;;;34,57497265
2,27060;;;27,25030687
2,27110;;;21,45161312
2,27160;;;17,78928023
2,27210;;;12,29578089
2,27260;;;-1,437967454
2,27310;;;-22,19118718
2,27360;;;-42,63921249
2,27410;;;-59,42490492
2,27460;;;-74,6846253
2,27510;;;-87,19759602
2,27560;;;-92,38590095
2,27610;;;-90,2495401
2,27660;;;-86,5872072
2,27710;;;-84,45084635
2,27760;;;-79,87293023
2,27809;;;-71,93787563
2,27859;;;-64,61320985
2,27909;;;-59,73009933
2,27959;;;-53,62621117
2,28009;;;-44,47037894
2,28059;;;-38,06129638
2,28109;;;-36,53532434
2,28159;;;-34,70415789
2,28209;;;-26,15871448
2,28259;;;-11,81457732
2,28309;;;5,276309515
2,28359;;;24,5035572
2,28409;;;43,12041607
2,28459;;;57,76974764
2,28509;;;66,31519106
2,28559;;;70,28271836
2,28609;;;69,67232954
2,28659;;;64,78921902
2,28709;;;58,38013646
2,28759;;;54,10741475
2,28809;;;50,44508186
2,28859;;;43,42561048
2,28909;;;34,26977825
2,28959;;;26,63991805
2,29009;;;20,5360299
2,29059;;;13,51655852
2,29109;;;7,717864777
2,29159;;;5,581503923
2,29209;;;1,613976623
2,29259;;;-12,11977172
2,29309;;;-34,39896349
2,29359;;;-55,15218321
2,29409;;;-70,41190359
2,29459;;;-83,53526313
2,29509;;;-95,13265062
2,29559;;;-98,79498351
2,29609;;;-95,43784503
2,29659;;;-91,77551213
2,29709;;;-90,2495401
2,29759;;;-85,67162398
2,29809;;;-77,12618056
2,29859;;;-69,19112596
2,29909;;;-63,08723781
2,29959;;;-54,23659999
2,30009;;;-43,55479572
2,30059;;;-35,92493552
2,30109;;;-32,87299145
2,30159;;;-29,51585296
2,30209;;;-21,27560395
2,30259;;;-7,847050016
2,30309;;;10,76980885
2,30359;;;33,65938943
2,30409;;;52,2762483
2,30459;;;63,26324698
2,30509;;;72,1138848
2,30559;;;85,23724433
2,30609;;;94,08788216
2,30659;;;87,06841078
2,30709;;;69,06194072
2,30759;;;56,85416442
2,30809;;;54,41260916
2,30859;;;51,36066508
2,30909;;;42,20483285
2,30959;;;33,65938943
2,31009;;;29,38666772
2,31059;;;24,80875161
2,31109;;;19,31525227
2,31159;;;16,26330819
2,31209;;;12,6009753
2,31259;;;0,08800458433
2,31309;;;-21,58079836
2,31359;;;-42,02882368
2,31409;;;-55,76257203
2,31459;;;-67,66515393
2,31509;;;-78,6521526
2,31559;;;-83,23006872
2,31609;;;-79,56773583
2,31659;;;-74,37943089
2,31709;;;-71,63268123
2,31759;;;-66,7495707
2,31809;;;-58,20412729
2,31859;;;-50,26907269
2,31909;;;-44,77557335
2,31959;;;-36,84051875
2,32009;;;-25,54832566
2,32059;;;-17,61327106
2,32109;;;-15,47691021
2,32159;;;-12,73016054
2,32209;;;-3,2691339
2,32259;;;11,99058648
2,32309;;;30,60744535
2,32359;;;51,36066508
2,32409;;;71,80869039
2,32459;;;87,06841078
2,32509;;;95,30865979
2,32559;;;99,27618709
2,32609;;;99,8865759
2,32659;;;96,83463183
2,32709;;;91,34113249
2,32759;;;87,67879959
2,32809;;;84,32166111
2,32859;;;78,52296736
2,32909;;;69,97752395
2,32959;;;62,34766376
2,33009;;;56,54897001
2,33059;;;50,13988745
2,33109;;;44,95158252
2,33159;;;42,81522166
2,33209;;;38,54249995
2,33259;;;23,89316839
2,33309;;;1,003587807
2,33359;;;-20,36002073
2,33408;;;-35,61974112
2,33458;;;-48,74310065
2,33508;;;-60,34048814
2,33558;;;-65,83398748
2,33608;;;-63,08723781
2,33658;;;-58,8145161
2,33708;;;-56,06776643
2,33758;;;-52,40543354
2,33808;;;-44,77557335
2,33858;;;-36,84051875
2,33908;;;-30,73663059
2,33958;;;-23,71715922
2,34008;;;-14,86652139
2,34058;;;-8,152244424
2,34108;;;-6,321077977
2,34158;;;-4,795105939
2,34208;;;2,529559846
2,34258;;;17,17889142
2,34308;;;36,10094469
2,34358;;;56,2437756
2,34408;;;74,86063447
2,34458;;;88,59438282
2,34508;;;97,13982623
2,34558;;;100,4969647
2,34608;;;99,27618709
2,34658;;;94,08788216
2,34708;;;87,37360519
2,34758;;;81,88010585
2,34808;;;76,69180092
2,34858;;;69,06194072
2,34908;;;59,29571968
2,34958;;;50,13988745
2,35008;;;42,51002725
2,35058;;;35,18536147
2,35108;;;28,77627891
2,35158;;;24,19836279
2,35208;;;16,87369701
2,35258;;;1,003587807
2,35308;;;-20,97040955
2,35358;;;-42,02882368
2,35408;;;-59,11971051
2,35458;;;-73,15865326
2,35508;;;-85,06123516
2,35558;;;-91,16512332
2,35608;;;-91,16512332
2,35658;;;-88,41837365
2,35708;;;-85,36642957
2,35758;;;-80,48331905
2,35808;;;-74,37943089
2,35858;;;-67,97034833
2,35908;;;-61,56126577
2,35958;;;-53,62621117
2,36008;;;-45,69115657
2,36058;;;-40,50285164
2,36108;;;-37,75610197
2,36158;;;-34,39896349
2,36208;;;-27,37949211
2,36258;;;-14,25613258
2,36308;;;4,360726292
2,36358;;;26,02952924
2,36408;;;44,95158252
2,36458;;;59,29571968
2,36508;;;68,75674632
2,36558;;;73,02946802
2,36608;;;71,19830158
2,36658;;;66,92557987
2,36708;;;64,48402461
2,36758;;;61,43208053
2,36808;;;53,19183152
2,36858;;;44,95158252
2,36908;;;44,64638811
2,36958;;;48,91910982
2,37008;;;42,81522166
2,37058;;;24,5035572
2,37108;;;10,15942004
2,37158;;;8,938642408
2,37208;;;8,938642408
2,37258;;;-5,405494754
2,37308;;;-29,51585296
2,37358;;;-49,96387828
2,37408;;;-63,39243222
2,37458;;;-76,82098616
2,37508;;;-89,33395687
2,37558;;;-93,30148417
2,37608;;;-89,33395687
2,37658;;;-85,36642957
2,37708;;;-83,53526313
2,37758;;;-78,6521526
2,37808;;;-70,717098
2,37858;;;-64,00282103
2,37908;;;-58,20412729
2,37958;;;-49,35348946
2,38008;;;-39,28207401
2,38058;;;-33,78857467
2,38108;;;-31,95740822
2,38158;;;-27,98988092
2,38208;;;-17,91846547
2,38258;;;-2,353550677
2,38308;;;15,95811378
2,38358;;;37,01652792
2,38408;;;56,54897001
2,38458;;;70,89310717
2,38508;;;79,43855059
2,38558;;;84,0164667
2,38608;;;84,0164667
2,38658;;;79,43855059
2,38708;;;73,94505125
2,38758;;;70,28271836
2,38808;;;65,70480224
2,38858;;;57,46455323
2,38908;;;48,00352659
2,38958;;;40,98405522
2,39008;;;35,18536147
2,39057;;;28,16589009
2,39107;;;22,67239075
2,39157;;;20,5360299
2,39207;;;14,73733615
2,39257;;;-0,8275786388
2,39307;;;-22,80157599
2,39357;;;-42,33401809
2,39407;;;-57,59373847
2,39457;;;-71,32748682
2,39507;;;-82,6196799
2,39557;;;-86,89240161
2,39607;;;-85,06123516
2,39657;;;-82,00929109
2,39707;;;-79,26254142
2,39757;;;-73,76904208
2,39807;;;-66,13918189
2,39857;;;-59,73009933
2,39907;;;-54,54179439
2,39957;;;-46,30154539
2,40007;;;-36,84051875
2,40057;;;-30,73663059
2,40107;;;-28,90546415
2,40157;;;-26,15871448
2,40207;;;-17,30807665
2,40257;;;-2,963939493
2,40307;;;15,04253056
2,40357;;;35,18536147
2,40407;;;53,80222034
2,40457;;;67,23077428
2,40507;;;75,47102329
2,40557;;;79,13335618
2,40607;;;78,21777296
2,40657;;;73,63985684
2,40707;;;68,45155191
2,40757;;;64,78921902
2,40807;;;59,60091409
2,40857;;;51,97105389
2,40907;;;44,3411937
2,40957;;;38,23730555
2,41007;;;31,52302858
2,41057;;;23,89316839
2,41107;;;19,31525227
2,41157;;;18,39966905
2,41207;;;12,90616971
2,41257;;;-3,2691339
2,41307;;;-24,93793685
2,41357;;;-43,85999012
2,41407;;;-58,8145161
2,41457;;;-73,15865326
2,41507;;;-84,14565194
2,41557;;;-87,50279043
2,41607;;;-85,36642957
2,41657;;;-82,6196799
2,41707;;;-79,26254142
2,41757;;;-72,54826445
2,41807;;;-64,30801544
2,41857;;;-57,59373847
2,41907;;;-50,57426709
2,41957;;;-41,11324046
2,42007;;;-32,56779704
2,42057;;;-27,98988092
2,42107;;;-25,54832566
2,42157;;;-20,66521514
2,42207;;;-12,11977172
2,42257;;;0,6983933997
2,42307;;;19,62044668
2,42357;;;41,59444403
2,42407;;;60,2113029
2,42457;;;71,80869039
2,42507;;;80,0489394
2,42557;;;85,84763315
2,42607;;;86,15282756
2,42657;;;80,35413381
2,42707;;;75,16582888
2,42757;;;72,72427362
2,42807;;;67,53596869
2,42857;;;57,15935882
2,42907;;;48,61391541
2,42957;;;44,3411937
2,43007;;;38,54249995
2,43057;;;29,69186213
2,43107;;;25,11394602
2,43157;;;25,11394602
2,43207;;;17,48408582
2,43257;;;-1,132773046
2,43307;;;-19,1392431
2,43357;;;-27,37949211
2,43407;;;-37,14571316
2,43457;;;-59,11971051
2,43507;;;-82,3144855
2,43557;;;-88,41837365
2,43607;;;-81,39890227
2,43657;;;-76,82098616
2,43707;;;-78,04176379
2,43757;;;-74,98981971
2,43807;;;-64,91840426
2,43857;;;-56,37296084
2,43907;;;-51,79504472
2,43957;;;-44,77557335
2,44007;;;-34,70415789
2,44057;;;-28,29507533
2,44107;;;-26,76910329
2,44157;;;-23,41196481
2,44207;;;-13,64574376
2,44257;;;1,003587807
2,44307;;;19,01005786
2,44357;;;39,15288877
2,44407;;;58,38013646
2,44457;;;71,80869039
2,44507;;;79,74374499
2,44557;;;84,0164667
2,44607;;;84,32166111
2,44656;;;80,35413381
2,44706;;;76,0814121
2,44756;;;73,33466243
2,44806;;;68,75674632
2,44856;;;59,60091409
2,44906;;;49,83469304
2,44956;;;43,73080489
2,45006;;;38,23730555
2,45056;;;30,30225095
2,45106;;;23,89316839
2,45156;;;21,75680753
2,45206;;;16,87369701
2,45256;;;0,6983933997
2,45306;;;-22,49638159
2,45356;;;-42,33401809
2,45406;;;-56,67815525
2,45456;;;-70,41190359
2,45506;;;-82,00929109
2,45556;;;-85,97681839
2,45606;;;-82,92487431
2,45656;;;-79,87293023
2,45706;;;-78,6521526
2,45756;;;-74,07423649
2,45806;;;-65,52879307
2,45856;;;-57,59373847
2,45906;;;-51,79504472
2,45956;;;-44,16518453
2,46006;;;-34,70415789
2,46056;;;-28,60026974
2,46106;;;-26,76910329
2,46156;;;-24,02235362
2,46206;;;-15,47691021
2,46256;;;-0,8275786388
2,46306;;;18,09447464
2,46356;;;38,54249995
2,46406;;;57,15935882
2,46456;;;70,28271836
2,46506;;;77,91257855
2,46556;;;81,57491144
2,46606;;;80,96452263
2,46656;;;76,69180092
2,46706;;;72,1138848
2,46756;;;68,45155191
2,46806;;;62,95805257
2,46856;;;54,41260916
2,46906;;;46,47755455
2,46956;;;40,98405522
2,47006;;;35,18536147
2,47056;;;26,94511246
2,47106;;;21,14641872
2,47156;;;19,31525227
2,47206;;;13,82175293
2,47256;;;-2,04835627
2,47306;;;-23,41196481
2,47356;;;-41,41843486
2,47406;;;-54,8469888
2,47456;;;-67,66515393
2,47506;;;-78,04176379
2,47556;;;-80,78851346
2,47606;;;-77,43137497
2,47656;;;-73,15865326
2,47706;;;-69,49632037
2,47756;;;-63,69762663
2,47806;;;-56,37296084
2,47856;;;-49,04829506
2,47906;;;-41,11324046
2,47956;;;-31,65221382
2,48006;;;-23,1067704
2,48056;;;-18,83404869
2,48106;;;-16,69768784
2,48156;;;-11,50938291
2,48206;;;-2,963939493
2,48256;;;9,854225631
2,48306;;;28,77627891
2,48356;;;50,44508186
2,48406;;;68,45155191
2,48456;;;79,13335618
2,48506;;;86,15282756
2,48556;;;91,64632689
2,48606;;;91,64632689
2,48656;;;85,23724433
2,48706;;;78,21777296
2,48756;;;74,86063447
2,48806;;;69,97752395
2,48856;;;60,51649731
2,48906;;;50,44508186
2,48956;;;44,03599929
2,49006;;;36,4061391
2,49056;;;26,63991805
2,49106;;;19,62044668
2,49156;;;16,5685026
2,49206;;;8,938642408
2,49256;;;-9,067827647
2,49306;;;-31,041825
2,49356;;;-49,96387828
2,49406;;;-66,13918189
2,49456;;;-81,09370786
2,49506;;;-90,5547345
2,49556;;;-92,08070654
2,49606;;;-91,16512332
2,49656;;;-89,63915128
2,49706;;;-80,17812464
2,49756;;;-63,08723781
2,49806;;;-53,01582236
2,49856;;;-56,67815525
2,49906;;;-61,56126577
2,49956;;;-53,62621117
2,50006;;;-39,28207401
2,50056;;;-32,26260263
2,50106;;;-31,95740822
2,50156;;;-27,37949211
2,50206;;;-14,86652139
2,50256;;;0,08800458433
2,50305;;;18,09447464
2,50355;;;40,3736664
2,50405;;;62,04246935
2,50455;;;74,55544006
2,50505;;;80,0489394
2,50555;;;83,71127229
2,50605;;;85,23724433
2,50655;;;81,26971703
2,50705;;;75,16582888
2,50755;;;72,1138848
2,50805;;;69,06194072
2,50855;;;60,51649731
2,50905;;;49,22430422
2,50955;;;41,59444403
2,51005;;;37,32172232
2,51055;;;31,82822299
2,51105;;;26,02952924
2,51155;;;22,67239075
2,51205;;;16,87369701
2,51255;;;1,308782215
2,51305;;;-20,66521514
2,51355;;;-40,50285164
2,51405;;;-55,45737762
2,51455;;;-68,27554274
2,51505;;;-78,34695819
2,51555;;;-81,09370786
2,51605;;;-78,34695819
2,51655;;;-74,6846253
2,51705;;;-71,32748682
2,51755;;;-65,52879307
2,51805;;;-57,59373847
2,51855;;;-50,8794615
2,51905;;;-44,47037894
2,51955;;;-36,23012993
2,52005;;;-27,0742977
2,52055;;;-22,19118718
2,52105;;;-20,05482632
2,52155;;;-16,08729902
2,52205;;;-6,931466793
2,52255;;;7,107475961
2,52305;;;26,02952924
2,52355;;;47,69833219
2,52405;;;66,62038546
2,52455;;;79,43855059
2,52505;;;86,45802196
2,52555;;;90,42554926
2,52605;;;90,42554926
2,52655;;;86,15282756
2,52705;;;81,57491144
2,52755;;;78,21777296
2,52805;;;72,72427362
2,52855;;;63,56844139
2,52905;;;54,71780356
2,52955;;;48,61391541
2,53005;;;41,89963844
2,53055;;;33,35419502
2,53105;;;27,55550128
2,53155;;;25,72433483
2,53205;;;19,01005786
2,53255;;;0,393198992
2,53305;;;-22,80157599
2,53355;;;-41,41843486
2,53405;;;-56,06776643
2,53455;;;-71,32748682
2,53505;;;-83,23006872
2,53555;;;-85,06123516
2,53605;;;-80,17812464
2,53655;;;-78,34695819
2,53705;;;-79,26254142
2,53755;;;-76,21059734
2,53805;;;-68,27554274
2,53855;;;-60,95087696
2,53905;;;-56,06776643
2,53955;;;-48,74310065
2,54005;;;-39,89246282
2,54055;;;-35,0093523
2,54105;;;-34,09376908
2,54155;;;-30,43143619
2,54205;;;-20,66521514
2,54255;;;-6,931466793
2,54305;;;10,15942004
2,54355;;;31,82822299
2,54405;;;52,58144271
2,54455;;;66,00999665
2,54505;;;71,19830158
2,54555;;;73,33466243
2,54605;;;73,94505125
2,54655;;;71,50349599
2,54705;;;66,62038546
2,54755;;;62,65285816
2,54805;;;58,38013646
2,54855;;;50,75027626
2,54905;;;41,59444403
2,54955;;;34,88016706
2,55005;;;29,08147332
2,55055;;;21,75680753
2,55105;;;15,34772497
2,55155;;;13,21136412
2,55205;;;8,328253592
2,55255;;;-7,541855608
2,55305;;;-30,43143619
2,55355;;;-50,26907269
2,55405;;;-64,00282103
2,55455;;;-77,12618056
2,55505;;;-88,41837365
2,55555;;;-91,16512332
2,55605;;;-86,89240161
2,55655;;;-83,53526313
2,55705;;;-82,00929109
2,55755;;;-74,98981971
2,55805;;;-64,61320985
2,55855;;;-58,20412729
2,55904;;;-53,93140558
2,55954;;;-43,55479572
2,56004;;;-30,43143619
2,56054;;;-26,15871448
2,56104;;;-27,37949211
2,56154;;;-16,39249343
2,56204;;;9,243836815
2,56254;;;28,4710845
2,56304;;;29,08147332
2,56354;;;26,33472365
2,56404;;;39,15288877
2,56454;;;62,04246935
2,56504;;;77,30218973
2,56554;;;81,88010585
2,56604;;;84,62685552
2,56654;;;85,84763315
2,56704;;;81,57491144
2,56754;;;73,63985684
2,56804;;;68,75674632
2,56854;;;65,09441342
2,56904;;;56,85416442
2,56954;;;45,86716574
2,57004;;;37,93211114
2,57054;;;32,4386118
2,57104;;;25,72433483
2,57154;;;19,62044668
2,57204;;;15,95811378
2,57254;;;9,243836815
2,57304;;;-7,236661201
2,57354;;;-30,12624178
2,57404;;;-49,65868387
2,57454;;;-64,30801544
2,57504;;;-77,43137497
2,57554;;;-88,41837365
2,57604;;;-92,08070654
2,57654;;;-89,02876246
2,57704;;;-85,36642957
2,57754;;;-82,3144855
2,57804;;;-76,82098616
2,57854;;;-69,49632037
2,57904;;;-62,17165459
2,57954;;;-55,15218321
2,58004;;;-46,30154539
2,58054;;;-37,14571316
2,58104;;;-31,95740822
2,58154;;;-29,51585296
2,58204;;;-24,63274244
2,58254;;;-15,1717158
2,58304;;;-0,8275786388
2,58354;;;18,09447464
2,58404;;;39,15288877
2,58454;;;57,76974764
2,58504;;;70,58791276
2,58554;;;78,21777296
2,58604;;;82,49049466
2,58654;;;81,88010585
2,58704;;;77,30218973
2,58754;;;72,72427362
2,58804;;;69,67232954
2,58854;;;64,48402461
2,58904;;;56,2437756
2,58954;;;48,00352659
2,59004;;;43,12041607
2,59054;;;37,93211114
2,59104;;;30,91263976
2,59154;;;25,72433483
2,59204;;;23,58797398
2,59254;;;17,48408582
2,59304;;;1,308782215
2,59354;;;-20,05482632
2,59404;;;-38,67168519
2,59454;;;-53,01582236
2,59504;;;-66,13918189
2,59554;;;-75,90540293
2,59604;;;-78,34695819
2,59654;;;-75,60020853
2,59704;;;-72,85345886
2,59754;;;-69,80151478
2,59804;;;-63,39243222
2,59854;;;-55,45737762
2,59904;;;-49,35348946
2,59954;;;-43,24960131
2,60004;;;-34,09376908
2,60054;;;-24,93793685
2,60104;;;-20,66521514
2,60154;;;-19,44443751
2,60204;;;-14,25613258
2,60254;;;-2,963939493
2,60304;;;11,68539208
2,60354;;;30,30225095
2,60404;;;52,58144271
2,60454;;;73,63985684
2,60504;;;86,45802196
2,60554;;;91,64632689
2,60604;;;93,47749334
2,60654;;;93,47749334
2,60704;;;90,42554926
2,60754;;;85,54243874
2,60804;;;82,18530026
2,60854;;;78,21777296
2,60904;;;70,89310717
2,60954;;;62,04246935
2,61004;;;55,32819238
2,61054;;;49,83469304
2,61104;;;43,12041607
2,61154;;;38,23730555
2,61204;;;35,79575029
2,61254;;;29,69186213
2,61304;;;12,6009753
2,61354;;;-10,59379969
2,61404;;;-30,73663059
2,61454;;;-45,08076776
2,61504;;;-58,50932169
2,61553;;;-70,10670919
2,61603;;;-74,37943089
2,61653;;;-71,93787563
2,61703;;;-70,10670919
2,61753;;;-70,717098
2,61803;;;-68,27554274
2,61853;;;-61,25607136
2,61903;;;-54,8469888
2,61953;;;-51,18465591
2,62003;;;-45,38596216
2,62053;;;-36,23012993
2,62103;;;-30,73663059
2,62153;;;-31,34701941
2,62203;;;-29,82104737
2,62253;;;-19,74963192
2,62303;;;-3,879522716
2,62353;;;12,6009753
2,62403;;;30,30225095
2,62453;;;48,91910982
2,62503;;;62,04246935
2,62553;;;65,39960783
2,62603;;;65,39960783
2,62653;;;70,28271836
2,62703;;;76,99699533
2,62753;;;75,16582888
2,62803;;;61,43208053
2,62853;;;45,25677692
2,62903;;;34,88016706
2,62953;;;29,99705654
2,63003;;;24,19836279
2,63053;;;15,65291938
2,63103;;;8,633448
2,63153;;;5,886698331
2,63203;;;4,360726292
2,63253;;;-3,574328308
2,63303;;;-20,66521514
2,63353;;;-41,11324046
2,63403;;;-59,11971051
2,63453;;;-74,07423649
2,63503;;;-87,19759602
2,63553;;;-96,04823384
2,63603;;;-97,87940029
2,63653;;;-94,82745621
2,63703;;;-91,47031773
2,63753;;;-88,11317924
2,63803;;;-82,00929109
2,63853;;;-74,37943089
2,63903;;;-67,05476511
2,63953;;;-59,42490492
2,64003;;;-49,35348946
2,64053;;;-39,89246282
2,64103;;;-34,70415789
2,64153;;;-32,87299145
2,64203;;;-28,29507533
2,64253;;;-17,61327106
2,64303;;;-1,743161862
2,64353;;;17,78928023
2,64403;;;40,06847199
2,64453;;;59,60091409
2,64503;;;73,02946802
2,64553;;;80,96452263
2,64603;;;85,84763315
2,64653;;;87,06841078
2,64703;;;83,40607789
2,64753;;;79,43855059
2,64803;;;77,60738414
2,64853;;;75,16582888
2,64903;;;68,1463575
2,64953;;;58,99052527
2,65003;;;51,66585949
2,65053;;;46,47755455
2,65103;;;41,59444403
2,65153;;;37,93211114
2,65203;;;35,49055588
2,65253;;;28,4710845
2,65303;;;12,29578089
2,65353;;;-8,152244424
2,65403;;;-26,15871448
2,65453;;;-40,50285164
2,65503;;;-53,93140558
2,65553;;;-64,00282103
2,65603;;;-66,7495707
2,65653;;;-63,39243222
2,65703;;;-60,34048814
2,65753;;;-57,89893288
2,65803;;;-52,71062795
2,65853;;;-45,08076776
2,65903;;;-38,67168519
2,65953;;;-33,17818586
2,66003;;;-25,54832566
2,66053;;;-17,91846547
2,66103;;;-13,64574376
2,66153;;;-12,42496613
2,66203;;;-9,373022054
2,66253;;;-0,5223842311
2,66303;;;13,21136412
2,66353;;;30,91263976
2,66403;;;50,44508186
2,66453;;;67,84116309
2,66503;;;79,74374499
2,66553;;;85,84763315
2,66603;;;87,67879959
2,66653;;;86,15282756
2,66703;;;81,88010585
2,66753;;;77,30218973
